att1,att2,att3,att4,att5,att6,att7,att8,att9,att10,att11,att12,att13,att14,att15,att16,att17,att18,att19,att20,att21,att22,att23,att24,att25,att26,att27,att28,att29,att30,att31,att32,att33,att34,att35,att36,att37,att38,att39,att40,att41,att42,att43,att44,att45,att46,att47,att48,att49,att50,att51,att52,att53,att54,att55,att56,att57,att58,att59,att60,att61,att62,att63,att64,att65,att66,att67,att68,att69,att70,att71,att72,att73,att74,att75,att76,att77,att78,att79,att80,att81,att82,att83,att84,att85,att86,att87,att88,att89,att90,att91,att92,att93,att94,att95,att96,att97,att98,att99,att100,att101,att102,att103,att104,att105,att106,att107,att108,att109,att110,att111,att112,att113,att114,att115,att116,att117,att118,att119,att120,att121,att122,att123,att124,att125,att126,att127,att128,att129,att130,att131,att132,att133,att134,att135,att136,att137,att138,att139,att140,target
1.77,1.599136690647482,1.1100359712230214,0.5471942446043163,0.0923381294964028,-0.1314028776978417,-0.1707194244604316,-0.1333453237410071,-0.0918345323741007,-0.0935611510791367,-0.1324460431654676,-0.1693525179856115,-0.1997482014388489,-0.204820143884892,-0.1994244604316547,-0.1882014388489208,-0.1934172661870503,-0.195431654676259,-0.2085611510791367,-0.2262589928057554,-0.2220863309352518,-0.1966906474820143,-0.1753237410071942,-0.175,-0.1894964028776979,-0.2137769784172661,-0.2100719424460431,-0.2032374100719424,-0.1816906474820143,-0.1817625899280575,-0.1795323741007194,-0.1793165467625899,-0.1731654676258993,-0.1770143884892086,-0.1832733812949639,-0.1702877697841726,-0.1457553956834532,-0.1674100719424461,-0.1687410071942446,-0.164568345323741,-0.145,-0.1337769784172661,-0.125,-0.1139928057553956,-0.105,-0.1164028776978418,-0.105,-0.1091007194244603,-0.100251798561151,-0.0914028776978417,-0.0925539568345323,-0.1038848920863309,-0.12,-0.1120143884892085,-0.0964748201438848,-0.0899280575539567,-0.0789208633093524,-0.07,-0.0782374100719425,-0.0729136690647482,-0.0559352517985611,-0.0647841726618705,-0.0341007194244603,-0.0399640287769784,-0.0653237410071943,-0.0905395683453238,-0.0969424460431653,-0.0757553956834533,-0.0798201438848919,-0.0761510791366907,-0.098273381294964,-0.1130935251798561,-0.1278776978417266,-0.1230575539568343,-0.115,-0.095,-0.0874820143884892,-0.0863669064748201,-0.1008633093525179,-0.1118705035971223,-0.115,-0.1117625899280575,-0.104388489208633,-0.1,-0.0884532374100717,-0.087158273381295,-0.1,-0.1048561151079137,-0.0962949640287769,-0.0874460431654675,-0.0921942446043164,-0.0802517985611511,-0.0891007194244605,-0.1108992805755397,-0.1282014388489207,-0.1143525179856114,-0.105503597122302,-0.0966546762589928,-0.099388489208633,-0.1073021582733812,-0.1301079136690647,-0.135,-0.122410071942446,-0.1021223021582733,-0.0755755395683454,-0.0808633093525179,-0.0720143884892085,-0.0713309352517984,-0.0729496402877696,-0.023741007194244,0.0085251798561154,0.0416906474820146,0.055,0.050071942446043,0.0374460431654674,0.027122302158273,0.015,-0.0006474820143887,-0.0350359712230215,-0.0831294964028777,-0.1324820143884892,-0.1578776978417266,-0.1887050359712231,-0.1715827338129496,-0.17,-0.1944604316546764,-0.2199280575539569,-0.2361870503597121,-0.2376618705035971,-0.2174460431654672,-0.1953597122302159,-0.216834532374101,-0.2372302158273385,-0.259280575539568,-0.1971582733812931,-0.0144964028776951,0.3269424460431708,0.7574100719424526,1.2064028776978484,1.555,0
1.355,1.3176978417266187,0.9268345323741009,0.3282733812949637,-0.2164028776978417,-0.5457194244604316,-0.6289928057553957,-0.5998920863309352,-0.5487050359712231,-0.53,-0.5582374100719425,-0.6187410071942445,-0.6370143884892087,-0.6388489208633094,-0.6479496402877698,-0.6574820143884892,-0.6480575539568345,-0.6273741007194245,-0.6330215827338129,-0.6251438848920863,-0.6333093525179856,-0.6385251798561151,-0.6442805755395683,-0.65,-0.645,-0.645,-0.6107913669064747,-0.6028057553956835,-0.6154676258992805,-0.6282014388489209,-0.6051438848920863,-0.6031294964028777,-0.6162949640287769,-0.6066187050359712,-0.5821223021582733,-0.5876258992805754,-0.5829136690647482,-0.5921223021582733,-0.5844244604316546,-0.5646402877697841,-0.5651438848920863,-0.545431654676259,-0.5320503597122302,-0.5333453237410074,-0.5364388489208634,-0.5251079136690647,-0.49,-0.4862230215827338,-0.4780575539568344,-0.4652158273381295,-0.475,-0.4928776978417267,-0.4769784172661868,-0.47,-0.46,-0.4558992805755396,-0.4427338129496402,-0.4462949640287771,-0.4564028776978417,-0.4432374100719424,-0.4350719424460431,-0.4411870503597123,-0.4424460431654677,-0.4111510791366906,-0.4253597122302159,-0.4657553956834533,-0.4739208633093525,-0.455,-0.4512589928057555,-0.4681654676258992,-0.4434172661870503,-0.4494964028776978,-0.4887410071942446,-0.4871582733812949,-0.4780215827338128,-0.4527697841726617,-0.4294244604316546,-0.4324820143884892,-0.4526258992805756,-0.4849280575539568,-0.4735251798561151,-0.47,-0.4517266187050359,-0.4345323741007195,-0.4235971223021584,-0.4359352517985611,-0.4389208633093528,-0.4538129496402877,-0.44,-0.4265467625899279,-0.400431654676259,-0.4,-0.4136690647482015,-0.4425539568345323,-0.4324460431654675,-0.4207194244604316,-0.4172302158273379,-0.4067985611510789,-0.385,-0.3883812949640288,-0.4065467625899281,-0.4194244604316546,-0.3956115107913666,-0.3718705035971223,-0.3431654676258989,-0.3078776978417265,-0.2939208633093526,-0.2924100719424461,-0.31,-0.3048201438848916,-0.2607913669064746,-0.2372661870503597,-0.220935251798561,-0.2146043165467625,-0.2267266187050362,-0.235,-0.2465827338129496,-0.2821582733812954,-0.3241007194244605,-0.355,-0.3501438848920862,-0.3560431654676259,-0.3906834532374108,-0.433705035971223,-0.455,-0.4456834532374101,-0.4423021582733812,-0.4029136690647476,-0.3805395683453239,-0.3983453237410072,-0.4210431654676261,-0.4490287769784173,-0.445,-0.4139568345323738,-0.319064748201439,-0.1425179856115083,0.1636690647482025,0.5621223021582791,1.0040647482014418,1.395,0
1.105,0.8831294964028776,0.4662949640287769,0.0026618705035971,-0.3789568345323741,-0.6005035971223022,-0.6888489208633093,-0.6626618705035972,-0.6538489208633094,-0.655863309352518,-0.6840647482014388,-0.7259712230215828,-0.7561510791366907,-0.7570863309352518,-0.76,-0.7521582733812949,-0.7608992805755396,-0.76,-0.766726618705036,-0.7792446043165467,-0.78,-0.7839928057553956,-0.7931654676258993,-0.7872302158273382,-0.771546762589928,-0.76,-0.7629136690647482,-0.777589928057554,-0.7756474820143885,-0.76,-0.7585611510791367,-0.750179856115108,-0.7464028776978417,-0.7481654676258993,-0.755,-0.7583093525179856,-0.746726618705036,-0.7451079136690647,-0.7430215827338129,-0.7231294964028777,-0.7202517985611511,-0.7322661870503597,-0.7270143884892086,-0.72,-0.72,-0.7171582733812949,-0.7,-0.7117625899280574,-0.7123021582733813,-0.705,-0.6928057553956835,-0.6974460431654675,-0.6983453237410071,-0.6815827338129496,-0.6922302158273381,-0.705,-0.705,-0.6867985611510791,-0.672769784172662,-0.6605035971223022,-0.655,-0.65,-0.6592805755395683,-0.663021582733813,-0.6764028776978418,-0.670431654676259,-0.6731654676258993,-0.6715467625899281,-0.6947122302158274,-0.6983093525179856,-0.7133093525179856,-0.7199280575539568,-0.711546762589928,-0.695,-0.7002158273381295,-0.7121942446043165,-0.7130215827338129,-0.7067985611510788,-0.7337410071942446,-0.73,-0.7089928057553956,-0.7,-0.6967985611510792,-0.705,-0.705,-0.725,-0.7376258992805753,-0.7124820143884892,-0.72,-0.7128057553956835,-0.7206834532374101,-0.7169064748201438,-0.7364748201438845,-0.7510791366906474,-0.74,-0.7224460431654677,-0.7346043165467625,-0.73,-0.735,-0.753992805755396,-0.7487410071942446,-0.7404676258992804,-0.7202158273381295,-0.705,-0.7083453237410071,-0.7048561151079138,-0.6884172661870503,-0.6828057553956836,-0.6694604316546762,-0.6371942446043167,-0.6022302158273379,-0.5796762589928057,-0.5824100719424461,-0.6104316546762589,-0.63,-0.6261510791366907,-0.6316906474820142,-0.6474460431654677,-0.6809712230215826,-0.7192446043165469,-0.7560431654676256,-0.8106834532374102,-0.8,-0.7982014388489208,-0.79,-0.7953237410071944,-0.8070863309352518,-0.8194244604316547,-0.8478057553956835,-0.84,-0.8217266187050358,-0.831798561151079,-0.8526618705035972,-0.8458633093525181,-0.8052517985611507,-0.6731294964028782,-0.4004676258992785,0.0212949640287763,0.4975539568345357,0.865,0
1.715,1.4784172661870505,0.9746762589928056,0.4177697841726618,0.0141726618705035,-0.1893884892086332,-0.2461510791366906,-0.25,-0.2496043165467626,-0.2788129496402878,-0.3212589928057555,-0.345,-0.3457913669064748,-0.3458273381294964,-0.358705035971223,-0.3721223021582733,-0.365,-0.3699280575539568,-0.3584532374100719,-0.345,-0.3505035971223021,-0.3590287769784173,-0.3574460431654676,-0.352841726618705,-0.345,-0.3256115107913669,-0.3183453237410071,-0.3103597122302158,-0.32,-0.33,-0.326978417266187,-0.3057194244604316,-0.28,-0.2763309352517986,-0.2848561151079136,-0.2782374100719424,-0.275,-0.264568345323741,-0.2560431654676259,-0.2275179856115107,-0.225,-0.2204676258992805,-0.2130575539568345,-0.2115827338129496,-0.2096762589928057,-0.1986330935251798,-0.1806834532374099,-0.17568345323741,-0.18,-0.1877338129496403,-0.195,-0.1902158273381295,-0.1933812949640287,-0.1781654676258993,-0.165,-0.165,-0.1551798561151079,-0.1490647482014388,-0.1405395683453237,-0.1379856115107914,-0.105,-0.1101079136690648,-0.1392446043165469,-0.1541726618705035,-0.1606115107913669,-0.169136690647482,-0.16,-0.1488129496402877,-0.1355755395683452,-0.16,-0.1735251798561151,-0.1705755395683454,-0.1761870503597121,-0.175,-0.1724100719424459,-0.16,-0.1629136690647482,-0.165,-0.1699640287769784,-0.1634892086330936,-0.165,-0.1644604316546763,-0.1518705035971223,-0.14,-0.1583453237410073,-0.17,-0.17,-0.1616187050359712,-0.149568345323741,-0.1437410071942446,-0.1422661870503597,-0.1507913669064748,-0.15931654676259,-0.162841726618705,-0.1613669064748201,-0.1601079136690647,-0.147913669064748,-0.1380575539568345,-0.15,-0.1579856115107915,-0.1549640287769784,-0.1579136690647482,-0.1408633093525179,-0.1269064748201438,-0.11,-0.105,-0.0976618705035971,-0.0634172661870503,-0.0428417266187049,-0.0172661870503596,0.0193884892086335,0.0537050359712229,0.0307194244604318,0.0049640287769784,0.0018705035971223,0.0046043165467625,-0.0039208633093525,-0.0372302158273385,-0.0738848920863313,-0.1169784172661869,-0.1470863309352518,-0.171546762589928,-0.1900719424460432,-0.2021942446043166,-0.2134892086330938,-0.22,-0.2283453237410072,-0.2453956834532374,-0.25,-0.25,-0.2415467625899282,-0.2585971223021585,-0.2809712230215827,-0.2911510791366906,-0.2441366906474816,-0.0780215827338113,0.22197841726619,0.6283812949640338,1.0802158273381284,1.465,0
1.77,1.7219424460431654,1.2689928057553956,0.6265107913669062,0.1118345323741006,-0.1218705035971223,-0.1720143884892086,-0.1286330935251798,-0.12,-0.1451079136690647,-0.1867625899280575,-0.19,-0.19,-0.2003956834532374,-0.2177338129496402,-0.2300359712230216,-0.2312949640287769,-0.2255035971223021,-0.1989568345323741,-0.1997122302158273,-0.2117625899280575,-0.2179496402877697,-0.2457194244604316,-0.25,-0.2258273381294963,-0.198093525179856,-0.185,-0.185,-0.195,-0.2078057553956834,-0.2099280575539568,-0.1937769784172661,-0.1601798561151078,-0.1610791366906475,-0.1744964028776978,-0.1852517985611511,-0.1920863309352518,-0.1892446043165467,-0.1628776978417266,-0.1419064748201438,-0.135,-0.1491366906474819,-0.1564028776978418,-0.1527697841726618,-0.1521223021582733,-0.129568345323741,-0.11,-0.12,-0.1327697841726618,-0.134568345323741,-0.153453237410072,-0.1628776978417266,-0.1326258992805754,-0.12,-0.1287410071942446,-0.1146043165467624,-0.1,-0.1082733812949641,-0.1009712230215826,-0.058525179856115,-0.0552877697841726,-0.0688129496402878,-0.0650359712230215,-0.0884532374100721,-0.1048201438848921,-0.0945323741007194,-0.082841726618705,-0.1033453237410071,-0.0994964028776979,-0.1044964028776978,-0.1173381294964031,-0.1215107913669065,-0.1016187050359707,-0.0714748201438848,-0.0715107913669065,-0.0796402877697841,-0.0892446043165468,-0.0924820143884892,-0.1,-0.0805755395683451,-0.0579496402877697,-0.0587769784172661,-0.0667266187050361,-0.075,-0.0882014388489209,-0.084388489208633,-0.0633812949640288,-0.0415827338129494,-0.0507553956834533,-0.05,-0.0606474820143884,-0.0905395683453241,-0.0926618705035973,-0.0751079136690646,-0.0697841726618705,-0.0664388489208632,-0.0722302158273382,-0.0867985611510792,-0.1132733812949641,-0.11,-0.082374100719424,-0.0732733812949638,-0.06,-0.07,-0.0731654676258995,-0.07,-0.0621582733812948,-0.0194604316546761,-0.0024820143884892,0.0345683453237415,0.0721942446043166,0.0872661870503597,0.08,0.0661870503597119,0.0898201438848923,0.098884892086331,0.0925539568345323,0.0578776978417261,0.0191007194244602,-0.0347122302158277,-0.0655755395683453,-0.0710431654676259,-0.0852517985611513,-0.1025899280575541,-0.1149640287769784,-0.1172661870503597,-0.1319064748201442,-0.1509712230215828,-0.1317985611510788,-0.1133812949640287,-0.121978417266187,-0.1475899280575544,-0.18226618705036,-0.2029856115107914,-0.1501798561151076,0.0147122302158311,0.3147122302158311,0.7690647482014424,1.27086330935252,1.69,0
1.8,1.5611870503597125,1.0635611510791367,0.496726618705036,0.0555035971223021,-0.1514748201438849,-0.1681654676258992,-0.1204316546762589,-0.095,-0.1214028776978417,-0.1618345323741007,-0.1916906474820143,-0.2054676258992805,-0.207410071942446,-0.1951438848920863,-0.210251798561151,-0.215,-0.22,-0.2158992805755395,-0.2076618705035971,-0.205,-0.1954316546762589,-0.2000359712230215,-0.2019064748201438,-0.2040647482014388,-0.1869424460431654,-0.1875899280575539,-0.185,-0.1897122302158273,-0.1965467625899281,-0.205,-0.2084172661870504,-0.19,-0.1524820143884891,-0.15068345323741,-0.1396402877697841,-0.1396043165467625,-0.1467625899280575,-0.1593525179856115,-0.1383453237410071,-0.1201079136690647,-0.1060071942446043,-0.1008633093525179,-0.095,-0.105,-0.1044964028776978,-0.0911870503597122,-0.075251798561151,-0.0690647482014388,-0.0694964028776978,-0.0914028776978418,-0.1066187050359712,-0.1092805755395681,-0.0862589928057553,-0.075,-0.07,-0.0478776978417266,-0.0429856115107913,-0.0380935251798561,-0.0398920863309352,-0.0276618705035971,-0.015,-0.0007913669064748,-0.013705035971223,-0.04,-0.0564748201438848,-0.0699640287769784,-0.0685971223021582,-0.087841726618705,-0.0685611510791366,-0.0685611510791366,-0.0656834532374101,-0.09,-0.0850359712230216,-0.0885251798561151,-0.0779136690647482,-0.0562949640287769,-0.0523741007194246,-0.0683093525179857,-0.0886690647482014,-0.085,-0.085,-0.0779856115107914,-0.05,-0.054136690647482,-0.0703956834532374,-0.0825179856115107,-0.09,-0.0983812949640287,-0.0872302158273379,-0.0644964028776978,-0.0640647482014388,-0.0728776978417265,-0.0938129496402878,-0.09,-0.095,-0.0881294964028776,-0.068705035971223,-0.0709712230215825,-0.0925539568345324,-0.1111151079136691,-0.115,-0.1214748201438848,-0.1078057553956836,-0.0553597122302159,-0.0521582733812948,-0.0424820143884892,-0.04,-0.0353956834532374,-0.0155035971223023,0.0119064748201441,0.0708633093525181,0.0811510791366906,0.0803597122302159,0.0580575539568346,0.0364028776978415,0.0188129496402876,0.0150359712230215,0.0143525179856115,-0.0226618705035969,-0.0740287769784168,-0.1135971223021584,-0.1478417266187051,-0.1811510791366906,-0.18,-0.1698561151079137,-0.1724100719424461,-0.1717985611510792,-0.1874820143884892,-0.2131654676258992,-0.225,-0.21,-0.2100719424460432,-0.2004676258992805,-0.0861151079136692,0.1279496402877684,0.4576618705036003,0.9111510791366936,1.3811870503597137,1.705,0
1.44,1.3138489208633093,0.9290287769784172,0.4289928057553956,-0.0294964028776978,-0.3173381294964029,-0.4222661870503597,-0.385431654676259,-0.3445323741007194,-0.3482014388489208,-0.3886690647482014,-0.4400359712230215,-0.4804676258992805,-0.488525179856115,-0.4748561151079136,-0.4681654676258993,-0.4501079136690648,-0.4394604316546762,-0.4432014388489209,-0.4606474820143884,-0.485,-0.475431654676259,-0.4683453237410072,-0.4461870503597122,-0.435,-0.4430575539568345,-0.46,-0.4561510791366907,-0.445863309352518,-0.4434532374100719,-0.4263309352517986,-0.3996043165467626,-0.395,-0.4175539568345324,-0.4360791366906475,-0.4260791366906475,-0.4189928057553956,-0.3897122302158273,-0.368705035971223,-0.35,-0.3547841726618705,-0.37,-0.37,-0.3506115107913669,-0.3433093525179856,-0.32,-0.3161870503597122,-0.3223741007194245,-0.3209352517985611,-0.3205035971223022,-0.3169424460431654,-0.33,-0.33,-0.3262589928057554,-0.3373021582733813,-0.336726618705036,-0.3317266187050359,-0.3130575539568346,-0.3003597122302157,-0.2848920863309352,-0.28,-0.2922302158273381,-0.2915827338129496,-0.2956474820143884,-0.2762589928057554,-0.2614748201438849,-0.2751438848920864,-0.2985971223021582,-0.311474820143885,-0.32,-0.332841726618705,-0.3121582733812949,-0.31,-0.3050359712230216,-0.3164748201438849,-0.3229136690647482,-0.3319424460431653,-0.345,-0.352230215827338,-0.3320143884892084,-0.31,-0.3084532374100719,-0.3179856115107914,-0.315,-0.3274100719424462,-0.32,-0.3162589928057553,-0.32,-0.3166187050359713,-0.3041726618705034,-0.3094964028776978,-0.3171942446043165,-0.3176258992805755,-0.3114388489208635,-0.290503597122302,-0.3083093525179856,-0.3062589928057553,-0.3058633093525179,-0.315,-0.3175539568345324,-0.3088848920863309,-0.3143525179856115,-0.31,-0.3067985611510791,-0.3003597122302159,-0.3010791366906474,-0.3025539568345323,-0.2758273381294964,-0.26,-0.2518345323741007,-0.2230935251798558,-0.2047122302158273,-0.1884532374100719,-0.1533093525179857,-0.1219424460431653,-0.1345323741007195,-0.1530935251798561,-0.16,-0.1906474820143884,-0.2238848920863307,-0.276690647482014,-0.3082014388489207,-0.3178417266187051,-0.338021582733813,-0.3515827338129496,-0.3605755395683451,-0.3837050359712231,-0.375,-0.3574820143884892,-0.3612230215827338,-0.375,-0.38,-0.3902877697841728,-0.4208992805755396,-0.3880575539568346,-0.2588489208633103,0.0412949640287803,0.5034172661870536,1.0141366906474836,1.405,0
1.695,1.6857553956834532,1.2986690647482015,0.7149280575539568,0.1775899280575539,-0.1381294964028777,-0.2429856115107913,-0.1843165467625899,-0.1308992805755395,-0.1221582733812949,-0.1640647482014388,-0.2153597122302158,-0.2438489208633093,-0.2270863309352518,-0.2096762589928057,-0.2142805755395683,-0.21,-0.2125179856115107,-0.215863309352518,-0.2327338129496402,-0.2294964028776978,-0.2209712230215827,-0.205,-0.19,-0.1911510791366906,-0.2040647482014388,-0.2070863309352517,-0.191294964028777,-0.1669424460431653,-0.1680575539568345,-0.1743165467625899,-0.1753597122302158,-0.1817985611510791,-0.175,-0.175,-0.1666187050359711,-0.151546762589928,-0.1298920863309352,-0.1284892086330935,-0.13,-0.13,-0.13,-0.1129856115107913,-0.1,-0.0886690647482013,-0.0835251798561152,-0.0810791366906474,-0.09,-0.09,-0.08,-0.0718705035971223,-0.0726618705035971,-0.0708273381294964,-0.0876258992805755,-0.082410071942446,-0.0790287769784172,-0.0619424460431653,-0.0390647482014387,-0.0005395683453238,0.0105035971223021,0.0071223021582733,-0.0062589928057553,-0.0053597122302158,-0.0080215827338129,0.0042086330935251,0.024568345323741,0.0073381294964028,-0.0030935251798561,-0.0198561151079137,-0.0416187050359712,-0.0466906474820144,-0.0348561151079137,-0.021546762589928,-0.0123381294964028,-0.025,-0.0178057553956834,-0.015,-0.0196402877697842,-0.015,0.01,-0.0010071942446043,-0.0138848920863308,-0.0154676258992805,-0.005,0.0111151079136692,0.009820143884892,0.01,0.0141726618705035,0.0,0.0009352517985611,0.0179496402877695,-0.0030935251798561,0.0010791366906474,0.0094604316546762,0.0163669064748199,0.0137769784172661,0.0053956834532374,-0.0029856115107914,-0.0063669064748201,-0.000503597122302,0.0306474820143884,0.053021582733813,0.0502158273381294,0.045,0.0466546762589928,0.0601438848920861,0.0834172661870503,0.1121942446043163,0.1403597122302159,0.1713669064748199,0.2016546762589931,0.2143525179856115,0.1864748201438845,0.1729136690647482,0.17,0.1738489208633093,0.1683093525179858,0.1375539568345323,0.1000359712230218,0.0526258992805755,0.0277338129496403,0.0025899280575538,0.0025179856115107,-0.0085971223021584,-0.0292805755395683,-0.0503237410071943,-0.0520863309352517,-0.0511510791366905,-0.0387769784172661,-0.0202517985611513,-0.005,-0.0367985611510789,-0.0789928057553957,-0.075863309352518,0.038776978417267,0.2845683453237402,0.6238129496402901,1.058057553956834,1.482841726618708,1.785,0
1.995,1.77431654676259,1.251978417266187,0.635251798561151,0.2105035971223021,0.0210791366906474,-0.024568345323741,0.0158273381294964,0.0579496402877697,0.0602158273381294,0.0338129496402877,0.009388489208633,-0.0097122302158273,-0.0260431654676258,-0.0360071942446042,-0.025,-0.02,-0.015,-0.0058633093525179,0.0078776978417266,-0.0085611510791367,-0.0244964028776978,-0.0287769784172661,-0.0127697841726618,0.0038489208633093,0.0027338129496402,0.0089568345323741,0.0093525179856115,0.005,0.01,0.0271223021582734,0.035,0.0591007194244604,0.0507913669064748,0.0474820143884891,0.0341726618705035,0.05068345323741,0.0673381294964028,0.0834892086330934,0.0871942446043165,0.09,0.0713669064748201,0.0760071942446043,0.1015107913669067,0.1568345323741007,0.1856834532374102,0.1827697841726618,0.1728417266187048,0.1396043165467625,0.1192086330935249,0.1259352517985611,0.1501079136690649,0.1712589928057553,0.1711870503597123,0.1664748201438846,0.1720143884892086,0.2103237410071942,0.2222661870503597,0.243884892086331,0.24,0.2364388489208632,0.22,0.1944604316546761,0.18,0.1817985611510791,0.1846762589928055,0.17,0.1732733812949639,0.195,0.1883093525179855,0.1883812949640287,0.1849280575539569,0.1980935251798561,0.2129136690647484,0.23,0.2128057553956836,0.2019784172661869,0.1901798561151078,0.1862589928057554,0.2007553956834533,0.215,0.2180575539568346,0.2091007194244603,0.22,0.2120143884892086,0.2151798561151082,0.2392086330935254,0.2416546762589928,0.26,0.2554676258992805,0.2493165467625897,0.236546762589928,0.2205395683453237,0.2183093525179857,0.2217625899280572,0.214388489208633,0.2123021582733812,0.2160071942446043,0.22,0.2276258992805756,0.2221942446043165,0.2142446043165468,0.2553237410071947,0.2908633093525181,0.2991726618705035,0.3024820143884892,0.2918345323741005,0.2791007194244606,0.3220503597122308,0.3650359712230216,0.4151438848920865,0.4470143884892089,0.451762589928057,0.4023021582733813,0.3627338129496402,0.3555755395683453,0.36,0.3634172661870504,0.3384892086330934,0.3059352517985608,0.2680215827338122,0.211546762589927,0.1712589928057553,0.19,0.209640287769784,0.205,0.206978417266187,0.1997122302158273,0.1842086330935249,0.176906474820144,0.1908633093525185,0.2135251798561151,0.205,0.2262949640287777,0.3217985611510809,0.5093525179856119,0.7985251798561173,1.2124460431654716,1.6428417266187103,2.01,0
1.445,1.3891726618705036,0.9758273381294964,0.4141007194244602,-0.0502877697841727,-0.2421582733812949,-0.2607194244604316,-0.2202877697841726,-0.2131654676258993,-0.2439208633093525,-0.2959352517985611,-0.3223381294964029,-0.3211870503597122,-0.3198920863309352,-0.3127697841726619,-0.325,-0.3231654676258993,-0.325,-0.325,-0.3137410071942446,-0.3040647482014388,-0.3058273381294964,-0.31,-0.315,-0.295251798561151,-0.3037769784172662,-0.3047841726618704,-0.2821582733812949,-0.28,-0.3,-0.2804676258992806,-0.2720503597122302,-0.2586690647482014,-0.2540287769784173,-0.241726618705036,-0.2594244604316547,-0.2614388489208633,-0.2448201438848921,-0.2324820143884892,-0.2247841726618705,-0.2110431654676259,-0.205,-0.205,-0.21,-0.2012949640287769,-0.1767985611510791,-0.1658992805755395,-0.17,-0.1842446043165469,-0.2057913669064748,-0.1852158273381295,-0.151115107913669,-0.1294244604316546,-0.1139928057553957,-0.1206834532374101,-0.1216906474820144,-0.1094604316546762,-0.0962230215827337,-0.0985251798561149,-0.0870863309352518,-0.1028057553956834,-0.1293525179856115,-0.1545323741007195,-0.1625179856115107,-0.17,-0.1594604316546761,-0.1409712230215827,-0.1378776978417266,-0.1601798561151081,-0.1861510791366908,-0.1905755395683453,-0.175,-0.1686330935251798,-0.16,-0.16,-0.1710071942446042,-0.1900359712230215,-0.1872661870503597,-0.1697841726618705,-0.165,-0.1520863309352517,-0.15,-0.1674460431654677,-0.2028417266187051,-0.2016906474820143,-0.188525179856115,-0.1729856115107912,-0.1601438848920862,-0.1687050359712231,-0.1876618705035973,-0.2078057553956836,-0.2294964028776976,-0.2076978417266184,-0.1891007194244602,-0.1782014388489207,-0.1843525179856114,-0.1889928057553959,-0.19,-0.1971942446043165,-0.195,-0.1901079136690647,-0.1812589928057554,-0.1801798561151079,-0.1785611510791366,-0.175,-0.1708633093525179,-0.1470863309352515,-0.12,-0.11,-0.100935251798561,-0.0882374100719423,-0.0588489208633089,-0.0206834532374097,-7.194244604306725e-05,-0.0313309352517988,-0.0376258992805756,-0.03294964028777,-0.0416187050359718,-0.0816906474820143,-0.1110431654676259,-0.1387410071942446,-0.1614388489208633,-0.2019784172661871,-0.235,-0.2422661870503597,-0.2383453237410073,-0.25,-0.2361870503597121,-0.2526618705035972,-0.265,-0.2696402877697841,-0.2692086330935253,-0.2811151079136692,-0.286187050359712,-0.2366906474820132,-0.1071223021582713,0.1562230215827384,0.5720143884892154,1.058309352517993,1.465,0
1.65,1.5017985611510791,0.9702158273381294,0.2962589928057554,-0.1667625899280575,-0.3324460431654676,-0.3431654676258993,-0.2905035971223021,-0.2789568345323741,-0.3214028776978417,-0.3774460431654676,-0.4033453237410072,-0.4077338129496403,-0.408705035971223,-0.3952877697841727,-0.375,-0.3909352517985611,-0.4105395683453237,-0.4067985611510791,-0.4126618705035971,-0.4125539568345324,-0.4002158273381295,-0.38,-0.38,-0.3918705035971223,-0.4059712230215827,-0.397589928057554,-0.3965467625899281,-0.3661510791366906,-0.33,-0.3436690647482014,-0.36,-0.3560431654676259,-0.3575179856115107,-0.3560791366906475,-0.3414388489208633,-0.3267985611510791,-0.3252877697841727,-0.3303237410071942,-0.3233453237410071,-0.3148920863309352,-0.3219784172661871,-0.2962949640287769,-0.2574820143884892,-0.2600719424460431,-0.2794964028776978,-0.2661870503597122,-0.2573741007194245,-0.2628057553956834,-0.2615107913669066,-0.2338848920863309,-0.2414748201438848,-0.2705395683453239,-0.2887410071942446,-0.2630935251798562,-0.256726618705036,-0.251726618705036,-0.2310431654676259,-0.2261870503597123,-0.2302158273381295,-0.2436690647482014,-0.2355395683453237,-0.2342086330935252,-0.2343525179856115,-0.2212589928057554,-0.2179496402877697,-0.240179856115108,-0.2685971223021582,-0.27,-0.275,-0.2707194244604317,-0.2564748201438848,-0.2614028776978417,-0.2798920863309352,-0.2814748201438848,-0.2829136690647482,-0.2643525179856115,-0.26,-0.2539208633093522,-0.245,-0.2596762589928058,-0.27,-0.2659712230215828,-0.2605755395683454,-0.2608633093525179,-0.2476978417266187,-0.2562589928057553,-0.2696402877697841,-0.2482374100719425,-0.2569424460431655,-0.255,-0.2387410071942446,-0.23,-0.2509352517985608,-0.265251798561151,-0.2583093525179856,-0.2668705035971223,-0.2637050359712231,-0.2420143884892087,-0.2301079136690648,-0.2461151079136691,-0.2593525179856115,-0.2761870503597121,-0.27,-0.2492805755395682,-0.2047122302158268,-0.1824820143884892,-0.18,-0.18,-0.1718345323741008,-0.1532733812949639,-0.1082733812949638,-0.0684532374100719,-0.0575899280575539,-0.0859712230215827,-0.0945323741007194,-0.0961870503597123,-0.1266187050359712,-0.1654316546762589,-0.1901079136690646,-0.2093525179856112,-0.2485971223021584,-0.2783812949640288,-0.2890647482014388,-0.3113309352517984,-0.3197122302158274,-0.3025899280575538,-0.2967985611510792,-0.3074820143884892,-0.32,-0.335,-0.3430215827338131,-0.365,-0.3577338129496402,-0.3152517985611511,-0.2083812949640295,0.0274460431654702,0.4217625899280602,0.9113309352518,1.385,0
1.63,1.4226978417266187,0.9364388489208632,0.3857913669064748,-0.0181294964028776,-0.2143884892086331,-0.2726618705035971,-0.2621223021582733,-0.2456474820143885,-0.2639928057553957,-0.2988489208633094,-0.341546762589928,-0.3546762589928057,-0.3582014388489208,-0.3621223021582733,-0.3583453237410072,-0.35,-0.35,-0.3529856115107913,-0.3452877697841727,-0.3655395683453237,-0.36568345323741,-0.3688129496402877,-0.355,-0.3469424460431654,-0.3423021582733813,-0.345,-0.351978417266187,-0.3592446043165467,-0.3504676258992805,-0.33,-0.3270863309352518,-0.328273381294964,-0.32,-0.32,-0.3228057553956834,-0.3169424460431654,-0.3012589928057554,-0.3,-0.3046043165467625,-0.305,-0.305,-0.2904676258992805,-0.257410071942446,-0.2488129496402877,-0.2598920863309352,-0.2662589928057554,-0.2500359712230215,-0.258705035971223,-0.2647841726618706,-0.2461510791366906,-0.245,-0.2464028776978417,-0.2544604316546763,-0.24,-0.2422661870503597,-0.2384892086330935,-0.2091366906474821,-0.1909352517985611,-0.175,-0.18,-0.18,-0.1841726618705035,-0.1820503597122302,-0.1767266187050359,-0.19,-0.2114028776978416,-0.2269424460431654,-0.2394964028776978,-0.23,-0.2168345323741007,-0.21,-0.2138848920863308,-0.2192805755395683,-0.215,-0.2215467625899279,-0.2179496402877697,-0.2033453237410071,-0.1996043165467625,-0.2017625899280574,-0.192841726618705,-0.1968705035971223,-0.2002877697841727,-0.1895323741007196,-0.19,-0.2118705035971223,-0.209640287769784,-0.2014028776978418,-0.195251798561151,-0.1973021582733813,-0.1902158273381296,-0.176294964028777,-0.1750359712230215,-0.1874820143884892,-0.190071942446043,-0.2076258992805753,-0.197589928057554,-0.2058992805755396,-0.2098561151079137,-0.1971582733812948,-0.195,-0.2,-0.205251798561151,-0.21,-0.194388489208633,-0.1668345323741007,-0.1592805755395684,-0.1293165467625897,-0.1270863309352518,-0.1249280575539569,-0.0981294964028779,-0.058776978417266,-0.0209352517985611,-0.0035971223021581,-0.0211510791366905,-0.038705035971223,-0.0468705035971223,-0.0361870503597123,-0.0663669064748199,-0.0928417266187051,-0.1279496402877697,-0.1581294964028772,-0.1965827338129494,-0.2232733812949641,-0.225,-0.2307553956834533,-0.238201438848921,-0.2346762589928057,-0.2434532374100719,-0.2539208633093522,-0.2639928057553956,-0.26,-0.2771223021582733,-0.28,-0.2683093525179854,-0.1911870503597121,0.0447482014388478,0.4346402877697805,0.9397122302158294,1.41,0
1.505,1.1713669064748202,0.5782374100719425,-0.0171942446043165,-0.355431654676259,-0.4559712230215827,-0.4039208633093525,-0.3498201438848921,-0.3638848920863309,-0.4189928057553956,-0.4619424460431655,-0.483705035971223,-0.4705035971223021,-0.4497122302158273,-0.4342805755395683,-0.4289568345323741,-0.4424460431654676,-0.4561510791366907,-0.4647482014388489,-0.4549640287769785,-0.4272302158273382,-0.4289208633093525,-0.415863309352518,-0.4227338129496403,-0.4313309352517985,-0.4448561151079137,-0.4308992805755396,-0.4065107913669065,-0.3957194244604317,-0.4,-0.405,-0.411978417266187,-0.3947841726618705,-0.3701798561151079,-0.3530935251798561,-0.3391007194244604,-0.3305035971223022,-0.3419064748201438,-0.3566906474820143,-0.3535611510791369,-0.3183453237410073,-0.3025539568345323,-0.2889208633093524,-0.2803237410071942,-0.293273381294964,-0.3056115107913669,-0.3081294964028777,-0.2859352517985611,-0.2876618705035971,-0.29,-0.2705755395683454,-0.2788129496402877,-0.2852517985611509,-0.2737050359712231,-0.248021582733813,-0.23931654676259,-0.225,-0.2250359712230216,-0.23,-0.245,-0.2558273381294964,-0.2555755395683453,-0.27,-0.2682374100719424,-0.2656474820143885,-0.2876258992805755,-0.292410071942446,-0.2889928057553957,-0.285,-0.2832014388489208,-0.2817985611510791,-0.2746043165467626,-0.2739928057553956,-0.2803597122302159,-0.275251798561151,-0.26,-0.2683812949640287,-0.2710431654676259,-0.2661510791366905,-0.2708273381294964,-0.2827697841726618,-0.2795323741007194,-0.2600359712230215,-0.25,-0.266474820143885,-0.27,-0.2743525179856115,-0.2879496402877697,-0.3003597122302157,-0.2847122302158274,-0.2712589928057554,-0.2873381294964028,-0.2868705035971223,-0.295,-0.31,-0.3146402877697846,-0.2843525179856115,-0.2710791366906474,-0.285071942446043,-0.305,-0.305,-0.31,-0.3080935251798561,-0.2774820143884891,-0.2385971223021584,-0.2453956834532374,-0.2562949640287769,-0.2355395683453237,-0.2110431654676261,-0.1924820143884892,-0.14521582733813,-0.102158273381295,-0.1165107913669066,-0.1408992805755395,-0.1599280575539567,-0.173345323741007,-0.1867985611510792,-0.2117266187050359,-0.2333812949640288,-0.2702877697841724,-0.3066187050359713,-0.3310071942446041,-0.3576978417266187,-0.3824460431654675,-0.3939568345323741,-0.3853597122302159,-0.3682374100719424,-0.3768345323741006,-0.3962949640287769,-0.4059712230215827,-0.395251798561151,-0.41,-0.41,-0.4181654676258992,-0.3598561151079141,-0.2266546762589922,0.0523021582733792,0.4771223021582739,0.9415467625899246,1.355,0
1.655,1.5418345323741007,1.0914028776978415,0.4896043165467625,-0.0147122302158274,-0.2666906474820144,-0.2993884892086331,-0.2351798561151079,-0.215,-0.2420143884892086,-0.2893525179856115,-0.3317625899280575,-0.3381294964028777,-0.3296402877697841,-0.3096043165467625,-0.3193525179856115,-0.3341726618705036,-0.3127338129496402,-0.3178057553956834,-0.321294964028777,-0.3393525179856115,-0.3334532374100719,-0.335,-0.3189928057553956,-0.3149640287769785,-0.3316906474820144,-0.337841726618705,-0.3081654676258992,-0.2923021582733812,-0.2935611510791367,-0.2956474820143884,-0.2986690647482014,-0.2933093525179856,-0.29,-0.2791007194244604,-0.2578776978417266,-0.2724460431654677,-0.2941007194244604,-0.2672302158273381,-0.2710791366906475,-0.279568345323741,-0.2777697841726618,-0.2619064748201438,-0.2550359712230216,-0.2494244604316546,-0.2459712230215827,-0.25,-0.2579856115107914,-0.2425539568345323,-0.23,-0.2389208633093525,-0.2332014388489207,-0.215,-0.2297841726618706,-0.245,-0.2111870503597121,-0.1884172661870502,-0.17,-0.130503597122302,-0.1082733812949639,-0.1130575539568346,-0.12,-0.1110071942446042,-0.1,-0.1065467625899282,-0.1421942446043166,-0.1647122302158273,-0.1675539568345324,-0.1890647482014389,-0.1827338129496402,-0.17,-0.1527338129496403,-0.1774460431654677,-0.1944244604316547,-0.1885971223021582,-0.195,-0.189820143884892,-0.1813309352517984,-0.162158273381295,-0.1806474820143884,-0.185,-0.18,-0.1972302158273382,-0.1957913669064749,-0.1688129496402876,-0.1581654676258995,-0.1751438848920864,-0.1778776978417266,-0.1720503597122302,-0.1789208633093522,-0.1820863309352519,-0.1774820143884892,-0.1690287769784174,-0.1984892086330938,-0.195,-0.1835251798561151,-0.1849640287769784,-0.1965467625899279,-0.1761151079136689,-0.1658633093525179,-0.1828417266187051,-0.205,-0.2017985611510792,-0.2275539568345323,-0.215,-0.1745323741007189,-0.1357194244604314,-0.1283453237410071,-0.1176618705035969,-0.0846762589928056,-0.0952517985611513,-0.0926978417266187,-0.0552517985611507,0.0085251798561162,0.0177697841726619,0.0137410071942446,-0.0042446043165469,-0.0164748201438851,-0.0232733812949639,-0.0156474820143884,-0.0411151079136692,-0.0969424460431667,-0.1497841726618709,-0.1925179856115107,-0.2379856115107915,-0.2426978417266184,-0.2303597122302157,-0.23,-0.2433812949640287,-0.2348920863309351,-0.240791366906475,-0.2529136690647482,-0.2594244604316546,-0.2671942446043169,-0.2572302158273378,-0.1276618705035971,0.1989568345323772,0.6993165467625986,1.226115107913673,1.615,0
1.35,1.164892086330935,0.6411510791366906,0.0487410071942443,-0.3802877697841727,-0.5551798561151079,-0.5595323741007194,-0.5014028776978416,-0.5065827338129496,-0.5474820143884893,-0.5844244604316546,-0.6220143884892086,-0.6540647482014388,-0.619820143884892,-0.5755755395683452,-0.5754676258992806,-0.5981654676258993,-0.610863309352518,-0.6242805755395684,-0.6168705035971223,-0.5960431654676259,-0.565,-0.565,-0.5629496402877697,-0.5723741007194244,-0.5724460431654675,-0.5799280575539568,-0.5593165467625899,-0.5244604316546763,-0.5283812949640287,-0.5359352517985612,-0.5320503597122302,-0.5476618705035973,-0.54,-0.533956834532374,-0.505,-0.4935611510791367,-0.4972302158273383,-0.4987410071942446,-0.4948920863309352,-0.49,-0.4565827338129496,-0.4333453237410071,-0.435,-0.443705035971223,-0.4353956834532373,-0.44,-0.4391007194244604,-0.425503597122302,-0.4164028776978417,-0.4273381294964029,-0.445,-0.4398561151079136,-0.435,-0.4221582733812949,-0.41,-0.3894604316546762,-0.3762230215827337,-0.3767625899280575,-0.3558273381294964,-0.3309352517985611,-0.325431654676259,-0.3377338129496403,-0.3474460431654677,-0.365,-0.3746402877697841,-0.365,-0.3471223021582733,-0.343273381294964,-0.36,-0.3644244604316546,-0.3815467625899281,-0.4015107913669063,-0.3730575539568343,-0.3505395683453234,-0.3313309352517986,-0.3400359712230215,-0.3377338129496403,-0.3502158273381294,-0.3590647482014388,-0.3354316546762589,-0.3047122302158273,-0.2956115107913669,-0.3044604316546763,-0.3199280575539569,-0.33,-0.3229856115107913,-0.2907194244604313,-0.2787050359712231,-0.2901079136690648,-0.3,-0.305,-0.313201438848921,-0.3241007194244602,-0.3014028776978415,-0.2856474820143885,-0.285503597122302,-0.2933453237410071,-0.2993884892086331,-0.3129136690647482,-0.3098920863309352,-0.2837769784172662,-0.2644604316546761,-0.2471223021582733,-0.2441366906474819,-0.23,-0.2270143884892086,-0.2313309352517984,-0.2072661870503594,-0.1582733812949635,-0.1180935251798557,-0.09,-0.0971582733812951,-0.1247122302158277,-0.1437769784172662,-0.1173741007194243,-0.10794964028777,-0.1362949640287775,-0.1716906474820143,-0.2080215827338129,-0.2412230215827338,-0.277158273381295,-0.2762949640287769,-0.2731654676258992,-0.2785971223021585,-0.3133453237410073,-0.3448561151079138,-0.3085611510791365,-0.3003237410071943,-0.2984892086330934,-0.3089208633093522,-0.3118345323741011,-0.3322302158273385,-0.3285611510791361,-0.2521582733812931,-0.0648920863309324,0.2484892086330987,0.7062230215827411,1.1791007194244667,1.485,0
1.53,1.276474820143885,0.7475539568345323,0.1711510791366906,-0.21431654676259,-0.374568345323741,-0.3643884892086331,-0.3090287769784172,-0.3208273381294964,-0.3698201438848921,-0.4194604316546763,-0.445,-0.4531294964028777,-0.4292805755395683,-0.4276978417266187,-0.4253237410071942,-0.43,-0.4472661870503597,-0.4621942446043166,-0.458705035971223,-0.4310791366906474,-0.428273381294964,-0.4182374100719424,-0.4192446043165467,-0.4199640287769784,-0.4372302158273381,-0.442841726618705,-0.4131654676258992,-0.4153956834532374,-0.4188129496402877,-0.415,-0.3986690647482014,-0.4016546762589928,-0.4095683453237409,-0.3877338129496402,-0.3786330935251798,-0.3706115107913669,-0.3667985611510791,-0.3625899280575539,-0.3560791366906475,-0.355431654676259,-0.3388848920863309,-0.325,-0.3100719424460432,-0.3235251798561151,-0.325,-0.3194964028776978,-0.3189928057553957,-0.2975539568345323,-0.295,-0.2994604316546763,-0.3108992805755396,-0.31,-0.31,-0.31,-0.2873741007194244,-0.2657913669064748,-0.2672302158273381,-0.275251798561151,-0.279136690647482,-0.2662949640287769,-0.2528417266187051,-0.2423381294964028,-0.2446402877697842,-0.2648561151079139,-0.2803956834532375,-0.3,-0.2962230215827338,-0.29,-0.2927338129496402,-0.2842446043165468,-0.2922661870503596,-0.3,-0.2952877697841726,-0.2985971223021582,-0.3100719424460433,-0.3046402877697841,-0.2876618705035969,-0.272841726618705,-0.2912949640287769,-0.3082733812949641,-0.3002517985611513,-0.3022302158273382,-0.3053956834532374,-0.2788129496402877,-0.276330935251799,-0.2951438848920864,-0.3085611510791367,-0.3129496402877697,-0.3089208633093522,-0.2919424460431654,-0.2749640287769785,-0.2860071942446043,-0.3124820143884898,-0.3220143884892086,-0.32,-0.3150359712230215,-0.31,-0.3130575539568345,-0.3062949640287769,-0.3278417266187051,-0.3427697841726615,-0.3441007194244603,-0.3356115107913669,-0.3134892086330933,-0.2708992805755392,-0.26,-0.2516906474820143,-0.2526618705035969,-0.2437050359712225,-0.2059352517985608,-0.1734892086330935,-0.1192086330935251,-0.1278417266187054,-0.15,-0.1575179856115107,-0.1744964028776979,-0.2011870503597128,-0.2369064748201441,-0.2610791366906474,-0.3035251798561154,-0.3293884892086334,-0.3543165467625898,-0.3583453237410071,-0.3803237410071943,-0.3988489208633092,-0.3903597122302157,-0.3737410071942446,-0.3916187050359713,-0.4048920863309351,-0.4071942446043167,-0.4191726618705035,-0.4338489208633092,-0.420935251798561,-0.3821223021582729,-0.2689208633093525,-0.0068345323740982,0.40118705035972,0.8896043165467665,1.33,0
1.585,1.3686690647482016,0.8385611510791368,0.2644244604316547,-0.1350359712230215,-0.2625179856115108,-0.2577338129496403,-0.2199280575539568,-0.2270143884892086,-0.2838489208633093,-0.3369064748201438,-0.3738848920863309,-0.3627338129496403,-0.3317266187050359,-0.3316187050359712,-0.3428057553956835,-0.3480215827338129,-0.3696402877697841,-0.3736330935251798,-0.3626618705035971,-0.3424820143884892,-0.3400719424460432,-0.3488848920863309,-0.3346043165467626,-0.3495323741007194,-0.3506474820143884,-0.3475899280575539,-0.3232014388489209,-0.3147122302158274,-0.31,-0.3143884892086331,-0.3196043165467626,-0.3239568345323741,-0.3125179856115109,-0.2907194244604316,-0.2846402877697842,-0.2872661870503596,-0.275,-0.2847841726618705,-0.28,-0.255,-0.24,-0.2345683453237409,-0.2239568345323741,-0.2255395683453237,-0.2434172661870503,-0.2242086330935252,-0.2023741007194244,-0.2140647482014388,-0.2281654676258993,-0.238705035971223,-0.2344604316546762,-0.236546762589928,-0.2087410071942446,-0.1891007194244604,-0.1897122302158273,-0.185,-0.1729856115107913,-0.1634532374100719,-0.175,-0.1737769784172661,-0.1574100719424461,-0.1814028776978417,-0.2006474820143884,-0.2270863309352517,-0.23931654676259,-0.2400359712230217,-0.215,-0.2107194244604316,-0.215,-0.23,-0.2357194244604316,-0.24,-0.2333093525179856,-0.218525179856115,-0.2090287769784173,-0.224136690647482,-0.2185971223021582,-0.245,-0.24,-0.2249280575539569,-0.2226978417266187,-0.21,-0.2214748201438848,-0.2341366906474819,-0.2323021582733811,-0.2358273381294964,-0.2365467625899282,-0.2221582733812948,-0.2443525179856115,-0.2381654676258992,-0.2389568345323741,-0.2407913669064747,-0.245,-0.235,-0.2305395683453238,-0.215,-0.2198561151079135,-0.2336690647482014,-0.245,-0.2525899280575538,-0.2502158273381294,-0.2403956834532378,-0.2222661870503597,-0.2003597122302157,-0.1989208633093527,-0.1808273381294964,-0.1870143884892087,-0.1578057553956836,-0.1219424460431653,-0.0911510791366907,-0.0717625899280575,-0.0841007194244602,-0.094136690647482,-0.0759712230215826,-0.0884892086330934,-0.0946043165467625,-0.1116906474820137,-0.1744244604316543,-0.2212230215827338,-0.2426618705035969,-0.2463669064748201,-0.2503597122302156,-0.2719784172661869,-0.2856115107913669,-0.3214748201438846,-0.344568345323741,-0.34,-0.3158273381294965,-0.3162589928057553,-0.315,-0.315,-0.3349280575539565,-0.3657553956834533,-0.3100359712230215,-0.1310431654676279,0.1710071942446032,0.6003237410071879,1.0717266187050332,1.465,0
1.53,1.372589928057554,0.9026978417266188,0.3366187050359711,-0.0714028776978418,-0.2401438848920863,-0.2790287769784172,-0.2879496402877697,-0.2793525179856115,-0.2801079136690648,-0.3102158273381295,-0.3557194244604316,-0.365,-0.3653956834532374,-0.3836330935251799,-0.3799280575539568,-0.3551798561151079,-0.3426258992805755,-0.3610431654676259,-0.3508633093525179,-0.3667625899280575,-0.3841007194244604,-0.387841726618705,-0.3530575539568344,-0.34,-0.3534532374100719,-0.3596043165467625,-0.3509352517985611,-0.3567985611510791,-0.3485971223021582,-0.3246402877697841,-0.3112230215827338,-0.3224100719424461,-0.315,-0.315,-0.3352517985611511,-0.3416546762589926,-0.3127338129496402,-0.2955755395683453,-0.3088129496402876,-0.305,-0.2845683453237409,-0.2758992805755396,-0.2666906474820144,-0.2392446043165466,-0.2251079136690647,-0.2375539568345324,-0.24,-0.235,-0.2397841726618705,-0.243453237410072,-0.2278776978417266,-0.215,-0.2239208633093525,-0.2362589928057553,-0.24,-0.235,-0.2225899280575538,-0.1959712230215826,-0.18,-0.1852877697841727,-0.2064388489208634,-0.2050359712230215,-0.1938489208633093,-0.1851798561151078,-0.1765107913669064,-0.19431654676259,-0.2133093525179856,-0.2344964028776978,-0.2218345323741007,-0.2218345323741007,-0.2339928057553956,-0.2208273381294963,-0.222841726618705,-0.2325539568345327,-0.2603597122302159,-0.2623021582733812,-0.2474820143884892,-0.23,-0.2251438848920862,-0.21,-0.219388489208633,-0.225,-0.2295323741007195,-0.23,-0.2281294964028777,-0.205,-0.2092086330935252,-0.21863309352518,-0.2288129496402876,-0.2352158273381294,-0.243884892086331,-0.2123381294964026,-0.195,-0.214568345323741,-0.2135611510791368,-0.225,-0.2335971223021584,-0.25,-0.2402877697841726,-0.223093525179856,-0.23,-0.2384892086330935,-0.2379136690647482,-0.2334172661870502,-0.223489208633093,-0.1832374100719422,-0.1751798561151079,-0.1662589928057554,-0.165071942446043,-0.1585971223021583,-0.1332014388489207,-0.094388489208633,-0.0515827338129491,-0.0396402877697846,-0.048884892086331,-0.0474460431654676,-0.0821223021582739,-0.1008992805755397,-0.1232374100719425,-0.1564388489208635,-0.1958273381294964,-0.2202517985611513,-0.2501798561151082,-0.2798920863309354,-0.28,-0.2846043165467628,-0.2840287769784171,-0.2753597122302157,-0.2733812949640287,-0.3,-0.3230575539568342,-0.31863309352518,-0.3279856115107914,-0.3184172661870502,-0.1965827338129463,0.068741007194248,0.4890647482014424,1.0045323741007213,1.43,0
1.365,1.26931654676259,0.8489208633093526,0.2851438848920864,-0.171115107913669,-0.4225539568345323,-0.515,-0.4993165467625899,-0.4533093525179856,-0.4372661870503597,-0.4708633093525179,-0.5077697841726618,-0.5220143884892087,-0.543273381294964,-0.562841726618705,-0.545,-0.5309712230215827,-0.526906474820144,-0.52,-0.5249280575539569,-0.5216906474820143,-0.5482374100719425,-0.5596402877697843,-0.5356115107913669,-0.5239568345323742,-0.514136690647482,-0.4973021582733812,-0.5145323741007194,-0.5263669064748201,-0.5267985611510791,-0.5274460431654676,-0.5059352517985611,-0.4969424460431654,-0.48,-0.4897482014388488,-0.5003956834532374,-0.501043165467626,-0.4871223021582734,-0.4751438848920863,-0.4419064748201438,-0.44,-0.4502158273381295,-0.4670503597122302,-0.4672302158273382,-0.4442805755395683,-0.4312230215827338,-0.405,-0.4162230215827338,-0.4330575539568345,-0.4473381294964029,-0.4567266187050359,-0.4692805755395683,-0.4523021582733812,-0.4238848920863309,-0.4018705035971223,-0.4020503597122302,-0.375,-0.3702158273381294,-0.36,-0.3364748201438848,-0.325,-0.3388129496402877,-0.3587410071942446,-0.3758633093525179,-0.397410071942446,-0.3928776978417266,-0.3833812949640288,-0.3660431654676259,-0.3723741007194244,-0.3873741007194244,-0.4042086330935252,-0.420251798561151,-0.4089568345323741,-0.3871582733812951,-0.37,-0.3738848920863309,-0.385,-0.3931294964028777,-0.3961870503597123,-0.4199280575539569,-0.3966187050359713,-0.3732014388489209,-0.369568345323741,-0.3745323741007195,-0.3720503597122302,-0.3904676258992805,-0.395,-0.385,-0.3685611510791367,-0.3475899280575538,-0.35,-0.372913669064748,-0.4025539568345323,-0.3987769784172661,-0.3763309352517984,-0.365,-0.3580575539568345,-0.3664748201438849,-0.3797841726618705,-0.4016187050359713,-0.3915467625899282,-0.3741366906474823,-0.3414388489208633,-0.321978417266187,-0.3096043165467625,-0.305,-0.31,-0.298705035971223,-0.2615467625899281,-0.2101079136690646,-0.1658992805755396,-0.1613669064748202,-0.1882014388489207,-0.1996043165467625,-0.2287050359712231,-0.2270143884892086,-0.2378057553956833,-0.2594604316546761,-0.2979496402877697,-0.3249280575539569,-0.375359712230216,-0.4209352517985607,-0.4480935251798562,-0.4440287769784173,-0.4225179856115107,-0.417841726618705,-0.425,-0.4329856115107913,-0.4546402877697841,-0.47,-0.4657553956834532,-0.46,-0.455,-0.4370143884892087,-0.3283812949640287,-0.134064748201438,0.1739208633093488,0.6172661870503566,1.097553956834531,1.43,0
1.37,1.2253956834532371,0.732410071942446,0.1033812949640288,-0.3751079136690647,-0.600863309352518,-0.6379856115107914,-0.5925539568345324,-0.575,-0.6095323741007194,-0.6516906474820143,-0.68,-0.6670143884892087,-0.6794244604316547,-0.67431654676259,-0.6812589928057554,-0.703705035971223,-0.6926258992805756,-0.691978417266187,-0.6948561151079136,-0.6833093525179856,-0.68,-0.6903597122302157,-0.6964028776978417,-0.6879856115107914,-0.688705035971223,-0.675,-0.6727338129496403,-0.6663669064748201,-0.6832014388489209,-0.6925179856115108,-0.6840647482014389,-0.671294964028777,-0.665,-0.6588129496402878,-0.655,-0.6620863309352518,-0.665,-0.6504316546762591,-0.643453237410072,-0.625071942446043,-0.6248920863309353,-0.6094244604316545,-0.6166546762589926,-0.6392805755395683,-0.63,-0.6134172661870504,-0.5993884892086331,-0.6030575539568345,-0.5975539568345324,-0.6067266187050359,-0.627841726618705,-0.6269064748201438,-0.6127697841726619,-0.6185971223021582,-0.6011510791366905,-0.59,-0.5852158273381295,-0.6096043165467625,-0.595,-0.5848561151079136,-0.5615467625899281,-0.5281294964028778,-0.5270143884892083,-0.6044604316546761,-0.6863669064748202,-0.706223021582734,-0.6670863309352518,-0.635,-0.64,-0.64,-0.6581294964028775,-0.6631294964028778,-0.6660791366906476,-0.6463669064748202,-0.642589928057554,-0.65,-0.6437410071942447,-0.6446402877697842,-0.6698920863309354,-0.6566187050359713,-0.6446043165467628,-0.630431654676259,-0.6363669064748201,-0.635,-0.6414028776978415,-0.6627697841726619,-0.6630935251798562,-0.6342805755395683,-0.63,-0.6275539568345323,-0.6330575539568346,-0.6381654676258992,-0.6578057553956835,-0.6712230215827338,-0.6564388489208637,-0.65,-0.645,-0.645,-0.645,-0.6751798561151077,-0.6847122302158275,-0.6714388489208634,-0.6490647482014389,-0.6446043165467625,-0.6438129496402877,-0.6233093525179858,-0.6230575539568346,-0.61,-0.5800359712230215,-0.5564028776978416,-0.5184172661870506,-0.4890647482014389,-0.4711510791366906,-0.488705035971223,-0.5,-0.5128057553956833,-0.52,-0.5332374100719425,-0.5666187050359713,-0.6004316546762593,-0.6474460431654673,-0.6680935251798562,-0.681294964028777,-0.7037410071942446,-0.704208633093525,-0.695,-0.6870143884892088,-0.707230215827338,-0.72,-0.7115107913669063,-0.715,-0.7189208633093526,-0.7284892086330934,-0.6983453237410071,-0.5883812949640281,-0.367805755395686,0.0214388489208604,0.5086330935251783,0.96,0
1.545,1.411043165467626,0.9385611510791366,0.3362589928057554,-0.1394964028776978,-0.3576978417266187,-0.390431654676259,-0.3305035971223021,-0.2980215827338129,-0.3143525179856115,-0.3748920863309352,-0.4308633093525179,-0.4213309352517985,-0.401115107913669,-0.39,-0.38,-0.3879136690647482,-0.4144604316546762,-0.4141007194244604,-0.4203237410071942,-0.4237769784172662,-0.4152158273381294,-0.4066546762589928,-0.3961870503597122,-0.3854676258992806,-0.3940287769784173,-0.377230215827338,-0.3688489208633093,-0.3838489208633093,-0.371726618705036,-0.3681654676258993,-0.3688129496402877,-0.3629136690647482,-0.3574820143884892,-0.347841726618705,-0.3585611510791366,-0.3467985611510791,-0.3385251798561151,-0.3403237410071942,-0.341115107913669,-0.3102158273381294,-0.2829856115107914,-0.288705035971223,-0.2975179856115107,-0.305,-0.3089928057553956,-0.2861870503597122,-0.2681294964028776,-0.2440647482014388,-0.2444964028776978,-0.2711151079136691,-0.2866187050359712,-0.2953597122302159,-0.2937769784172661,-0.2684892086330936,-0.257410071942446,-0.2361510791366906,-0.2410431654676259,-0.2434532374100719,-0.2501079136690647,-0.255,-0.2372302158273381,-0.2292086330935252,-0.2293525179856115,-0.2508273381294964,-0.2679496402877697,-0.2851079136690648,-0.2964028776978417,-0.29,-0.2792805755395683,-0.2707194244604317,-0.26,-0.2792086330935252,-0.2999280575539568,-0.3064748201438849,-0.2908273381294964,-0.2743525179856115,-0.2615827338129498,-0.2577697841726619,-0.2726618705035972,-0.2897841726618705,-0.2980935251798561,-0.2789568345323742,-0.2626978417266184,-0.2408633093525179,-0.2326978417266187,-0.2462589928057554,-0.2596402877697841,-0.2783812949640287,-0.27,-0.2684892086330934,-0.2631294964028777,-0.2521223021582734,-0.255,-0.264496402877698,-0.2766187050359713,-0.2862589928057554,-0.2787050359712231,-0.265,-0.2648920863309351,-0.2622302158273382,-0.288705035971223,-0.2852877697841727,-0.2703956834532373,-0.2635611510791364,-0.2332374100719423,-0.2150359712230215,-0.2139568345323741,-0.2007913669064749,-0.1755035971223023,-0.1448201438848919,-0.1191366906474819,-0.0973021582733812,-0.1,-0.125,-0.134064748201439,-0.1380935251798561,-0.1566546762589928,-0.1854316546762589,-0.2176618705035969,-0.2620143884892084,-0.2903956834532377,-0.3194604316546763,-0.321978417266187,-0.3213309352517984,-0.3398561151079137,-0.335,-0.3422661870503597,-0.3608273381294964,-0.3781654676258992,-0.3641007194244605,-0.3545323741007196,-0.3552877697841728,-0.375,-0.3546402877697842,-0.2576258992805764,-0.0046043165467597,0.411906474820147,0.9284532374100736,1.36,0
1.48,1.3156115107913668,0.8409712230215827,0.2965827338129495,-0.0977697841726618,-0.2836690647482014,-0.3305755395683453,-0.3027697841726618,-0.2877338129496403,-0.3023021582733812,-0.3442086330935252,-0.3681294964028777,-0.3741007194244604,-0.3829136690647482,-0.395,-0.3938129496402878,-0.3917985611510791,-0.3816906474820144,-0.3594244604316546,-0.3639928057553957,-0.385251798561151,-0.395,-0.3887410071942446,-0.375,-0.3626978417266186,-0.351978417266187,-0.3569424460431654,-0.370863309352518,-0.375,-0.3701798561151079,-0.3647482014388489,-0.3453597122302159,-0.325,-0.3293884892086331,-0.3466187050359712,-0.3544604316546763,-0.3526978417266187,-0.3299280575539569,-0.3090287769784172,-0.2920863309352517,-0.28,-0.2915107913669065,-0.3046762589928057,-0.2928057553956834,-0.2874820143884892,-0.2564388489208633,-0.2589208633093525,-0.2492805755395683,-0.265,-0.2728776978417266,-0.285,-0.2949280575539568,-0.273884892086331,-0.2587769784172661,-0.263273381294964,-0.26,-0.2508633093525179,-0.2265107913669065,-0.222410071942446,-0.22,-0.22,-0.2241726618705035,-0.243093525179856,-0.2479856115107913,-0.2459352517985611,-0.25,-0.2687769784172662,-0.2776978417266187,-0.275,-0.2694604316546763,-0.2516187050359711,-0.2366187050359712,-0.2396043165467625,-0.2737769784172661,-0.2805755395683451,-0.2959352517985611,-0.2790287769784171,-0.2623741007194246,-0.2458633093525179,-0.2392446043165469,-0.24,-0.2501798561151079,-0.2725539568345327,-0.2741366906474821,-0.2519424460431654,-0.233453237410072,-0.244388489208633,-0.2577697841726618,-0.2599640287769785,-0.2589568345323741,-0.265,-0.2614028776978418,-0.237158273381295,-0.25,-0.2571223021582733,-0.27,-0.2714028776978418,-0.275,-0.2707553956834532,-0.2586690647482015,-0.2570863309352518,-0.2660071942446044,-0.2601438848920864,-0.2611510791366906,-0.2583093525179858,-0.2365467625899282,-0.2087769784172661,-0.190935251798561,-0.1896402877697842,-0.1623741007194244,-0.1435251798561154,-0.1093525179856115,-0.095,-0.1080575539568344,-0.1159352517985611,-0.1173021582733811,-0.1001798561151079,-0.1,-0.1336330935251803,-0.177913669064748,-0.2125179856115109,-0.2615467625899285,-0.3017266187050358,-0.3154676258992805,-0.3188129496402878,-0.324568345323741,-0.305,-0.3161510791366907,-0.3356115107913669,-0.3542086330935251,-0.3358633093525181,-0.3241007194244604,-0.33,-0.3364748201438849,-0.3060431654676256,-0.1909352517985621,0.0483093525179852,0.4587050359712252,0.9665107913669037,1.42,0
1.53,1.4272661870503596,1.0050359712230217,0.4535611510791365,0.0042446043165466,-0.2201798561151079,-0.28,-0.2536330935251799,-0.2319424460431654,-0.2711510791366907,-0.3251438848920863,-0.3596402877697841,-0.355,-0.3573021582733812,-0.3613669064748201,-0.3501079136690647,-0.368705035971223,-0.3673741007194244,-0.3537410071942445,-0.3347122302158273,-0.3485251798561151,-0.3570503597122302,-0.3535611510791366,-0.345,-0.3619424460431654,-0.343273381294964,-0.3296043165467626,-0.325,-0.3195323741007194,-0.3114028776978417,-0.3299280575539568,-0.3287410071942446,-0.3325899280575539,-0.31068345323741,-0.290251798561151,-0.2818345323741008,-0.2929136690647481,-0.3034892086330934,-0.308273381294964,-0.3019064748201438,-0.2847122302158273,-0.265431654676259,-0.2741007194244604,-0.2722302158273381,-0.26,-0.265,-0.2612230215827338,-0.2376618705035971,-0.2177697841726618,-0.21,-0.2338129496402879,-0.2442446043165468,-0.2457913669064748,-0.25,-0.2474820143884892,-0.2260071942446041,-0.2090647482014388,-0.2082733812949641,-0.2071942446043165,-0.1920503597122301,-0.1747122302158273,-0.1611870503597121,-0.135,-0.135,-0.1591007194244606,-0.1704676258992805,-0.182158273381295,-0.1966546762589928,-0.2005035971223021,-0.1741726618705035,-0.17,-0.1760071942446043,-0.1808273381294963,-0.1956834532374101,-0.2084892086330934,-0.1992805755395682,-0.1684532374100719,-0.1674820143884892,-0.1747482014388492,-0.1802877697841725,-0.1920503597122302,-0.1971942446043165,-0.1824100719424457,-0.160935251798561,-0.1532014388489209,-0.1587410071942446,-0.18,-0.1842086330935252,-0.2028776978417266,-0.1953597122302157,-0.1797841726618705,-0.1711151079136689,-0.1751079136690649,-0.185,-0.2094604316546763,-0.2035611510791368,-0.1933093525179853,-0.1767985611510792,-0.1804316546762589,-0.1782374100719424,-0.191906474820144,-0.2111510791366908,-0.2157553956834532,-0.1812589928057554,-0.1602517985611507,-0.1494964028776976,-0.14,-0.139820143884892,-0.1362589928057554,-0.1202877697841722,-0.0662230215827332,-0.0186690647482012,0.01,0.01,-0.0080935251798564,-0.035,-0.0481654676258992,-0.035,-0.0338489208633096,-0.0830935251798564,-0.1317266187050361,-0.1679136690647482,-0.2128776978417269,-0.24,-0.2449640287769784,-0.2436330935251798,-0.2376978417266185,-0.2369424460431656,-0.2635611510791369,-0.2699280575539569,-0.266978417266187,-0.2606474820143886,-0.27363309352518,-0.29,-0.2401438848920861,-0.1006115107913632,0.1907194244604353,0.6450359712230256,1.169532374100721,1.585,0
1.51,1.2287410071942446,0.7105755395683453,0.1823741007194244,-0.1653237410071943,-0.2907553956834532,-0.2684892086330935,-0.1972661870503597,-0.1996043165467625,-0.2588129496402878,-0.3107553956834533,-0.325,-0.3226978417266187,-0.3083453237410071,-0.2956474820143884,-0.3086330935251798,-0.3164028776978417,-0.3347841726618705,-0.32,-0.3030215827338129,-0.2855035971223021,-0.2940287769784173,-0.3024460431654676,-0.3110791366906475,-0.315,-0.3118705035971223,-0.3066546762589928,-0.3044604316546762,-0.29,-0.2966906474820144,-0.2992446043165467,-0.2992805755395684,-0.285,-0.2886690647482014,-0.285,-0.28,-0.2857194244604317,-0.3087050359712229,-0.295,-0.2950359712230215,-0.2739568345323738,-0.2454676258992805,-0.25,-0.2481654676258993,-0.2551079136690647,-0.2781654676258993,-0.27136690647482,-0.24068345323741,-0.2323741007194244,-0.2277338129496403,-0.2237410071942446,-0.229568345323741,-0.2216187050359712,-0.2026618705035971,-0.167841726618705,-0.136115107913669,-0.13,-0.1290647482014388,-0.1294604316546763,-0.1459712230215828,-0.16,-0.1500719424460432,-0.1564388489208632,-0.15,-0.17,-0.1824100719424461,-0.1953237410071942,-0.1964388489208632,-0.185,-0.1767625899280575,-0.1847122302158273,-0.1905755395683454,-0.1923741007194243,-0.1873381294964028,-0.1841366906474819,-0.18,-0.1641726618705035,-0.1628776978417266,-0.1799280575539569,-0.1869784172661872,-0.2070143884892087,-0.2133812949640288,-0.1959352517985611,-0.184820143884892,-0.1694604316546764,-0.1757194244604315,-0.1881654676258993,-0.1966906474820143,-0.2058633093525179,-0.225,-0.2054676258992805,-0.1876258992805753,-0.18794964028777,-0.19568345323741,-0.2154676258992805,-0.2251079136690647,-0.2318345323741007,-0.23,-0.1995323741007193,-0.195,-0.2025539568345323,-0.2060431654676258,-0.2054316546762589,-0.205,-0.1902877697841722,-0.1397122302158271,-0.1226618705035971,-0.1162230215827338,-0.0914388489208633,-0.0915107913669064,-0.057230215827338,-0.03,-0.0203597122302159,-0.025,-0.0187410071942446,-0.0257913669064748,-0.0546043165467628,-0.0797841726618708,-0.1129136690647484,-0.1384892086330934,-0.1570863309352518,-0.1880935251798561,-0.225,-0.225,-0.2434892086330938,-0.2562949640287769,-0.2608273381294964,-0.2503956834532374,-0.2424460431654677,-0.2642446043165469,-0.2765467625899282,-0.2932014388489207,-0.2996762589928057,-0.2911510791366906,-0.2217625899280571,-0.053920863309351,0.2287050359712258,0.627482014388494,1.0757913669064738,1.435,0
1.17,1.0839208633093524,0.7028776978417266,0.1437410071942445,-0.3605395683453237,-0.6498920863309353,-0.7411510791366906,-0.7309712230215827,-0.71,-0.713273381294964,-0.7207553956834533,-0.7614388489208633,-0.8069064748201439,-0.8241726618705035,-0.8156474820143884,-0.8184892086330935,-0.8021942446043165,-0.8048561151079138,-0.8,-0.8240647482014388,-0.8134892086330934,-0.7919424460431654,-0.7824460431654676,-0.8021582733812951,-0.8007913669064749,-0.7918705035971223,-0.7983093525179857,-0.795,-0.7838848920863309,-0.765,-0.765,-0.7778417266187051,-0.755,-0.7626618705035971,-0.7845683453237411,-0.7548561151079136,-0.7054676258992804,-0.710863309352518,-0.7318705035971222,-0.7374460431654677,-0.7239928057553956,-0.7290647482014389,-0.72,-0.6920863309352515,-0.665,-0.6758992805755397,-0.672841726618705,-0.6679496402877698,-0.6592086330935252,-0.645,-0.6287410071942446,-0.6202158273381295,-0.6466187050359713,-0.6618345323741007,-0.6546402877697842,-0.6538848920863309,-0.635179856115108,-0.6281294964028777,-0.6378417266187052,-0.6429856115107915,-0.6434892086330936,-0.6450359712230216,-0.6535611510791368,-0.6420863309352518,-0.6293884892086331,-0.629136690647482,-0.6429856115107914,-0.6561870503597123,-0.6694244604316548,-0.6897122302158273,-0.7014748201438848,-0.6641366906474819,-0.6461870503597122,-0.645,-0.65,-0.6587769784172663,-0.6779136690647483,-0.6728776978417267,-0.6651079136690646,-0.6615107913669064,-0.6589568345323739,-0.6505395683453238,-0.6590647482014389,-0.6877697841726619,-0.6855395683453236,-0.6560791366906473,-0.6331654676258994,-0.6467625899280575,-0.671294964028777,-0.7037410071942446,-0.7041366906474817,-0.6726258992805754,-0.64705035971223,-0.64568345323741,-0.6527338129496403,-0.6648920863309353,-0.6752517985611513,-0.6919424460431655,-0.6940647482014387,-0.6690287769784169,-0.6574820143884893,-0.656043165467626,-0.650863309352518,-0.655,-0.6616187050359713,-0.6294244604316543,-0.5916546762589929,-0.58,-0.5764388489208633,-0.5722661870503596,-0.5366906474820142,-0.5024100719424459,-0.5046402877697841,-0.5166546762589929,-0.51,-0.5157913669064749,-0.5367625899280577,-0.5624460431654676,-0.565827338129497,-0.6034892086330934,-0.6019784172661871,-0.6196402877697842,-0.6506474820143889,-0.7129856115107917,-0.7378776978417265,-0.74,-0.74,-0.7496043165467625,-0.7313309352517985,-0.701007194244604,-0.705,-0.7267985611510792,-0.7506474820143885,-0.7676978417266187,-0.7436330935251796,-0.5812230215827321,-0.2641726618705005,0.1601798561151133,0.6505395683453223,1.085,0
1.705,1.491294964028777,0.9510071942446044,0.3711870503597121,-0.0312230215827337,-0.1896402877697841,-0.1802158273381295,-0.0964028776978417,-0.0816546762589928,-0.1356115107913669,-0.1895683453237409,-0.217841726618705,-0.2129136690647482,-0.2011870503597122,-0.2017985611510791,-0.2246762589928057,-0.215,-0.2157553956834532,-0.205,-0.199136690647482,-0.195,-0.1988489208633093,-0.21,-0.2131654676258993,-0.2025179856115107,-0.194820143884892,-0.2,-0.1878057553956834,-0.1917985611510791,-0.2007913669064748,-0.205,-0.1848920863309352,-0.1766906474820144,-0.1564748201438849,-0.16,-0.1647482014388489,-0.1849640287769784,-0.1717985611510792,-0.153273381294964,-0.1442805755395683,-0.14,-0.151115107913669,-0.1496043165467625,-0.1516187050359712,-0.135,-0.1256474820143884,-0.1336690647482014,-0.1326618705035971,-0.1316546762589928,-0.1332374100719422,-0.155,-0.1413669064748202,-0.1173741007194244,-0.0933812949640287,-0.0887769784172662,-0.0615827338129497,-0.0478057553956834,-0.0348201438848921,-0.0215827338129496,-0.0311510791366906,-0.030863309352518,-0.04,-0.0448920863309352,-0.064640287769784,-0.0783812949640288,-0.0740647482014388,-0.0614748201438849,-0.065071942446043,-0.0834892086330935,-0.0705035971223021,-0.0794964028776978,-0.075,-0.075,-0.0685251798561151,-0.0654676258992805,-0.0610791366906474,-0.0734532374100719,-0.0697841726618702,-0.0635611510791366,-0.0504316546762589,-0.0638489208633092,-0.0768345323741007,-0.084820143884892,-0.09,-0.0846043165467625,-0.0712230215827338,-0.0466187050359712,-0.0497482014388489,-0.07,-0.0803597122302157,-0.0893525179856115,-0.0799640287769784,-0.07,-0.0563309352517985,-0.0653237410071942,-0.0786330935251797,-0.0983093525179856,-0.1053956834532374,-0.093705035971223,-0.0991366906474823,-0.0764388489208633,-0.0848201438848919,-0.105,-0.09,-0.0944964028776979,-0.07226618705036,-0.0355755395683453,-0.0138489208633096,0.0024460431654674,0.0002158273381294,0.0218345323741004,0.0660071942446038,0.0987769784172661,0.1111870503597121,0.1048201438848921,0.0874820143884892,0.0791726618705038,0.0728417266187051,0.051546762589928,0.0294244604316548,-0.0106834532374095,-0.0456474820143884,-0.0906115107913666,-0.1261151079136689,-0.1348920863309352,-0.1382014388489207,-0.148093525179856,-0.145,-0.1382374100719423,-0.1551438848920861,-0.1609352517985611,-0.16,-0.1570503597122301,-0.165,-0.12953237410072,-0.0085971223021596,0.2738848920863309,0.6887769784172636,1.1503597122302112,1.545,0
1.7,1.5242086330935252,0.9696043165467624,0.2941726618705034,-0.1965467625899281,-0.3646762589928058,-0.3321582733812949,-0.2525179856115108,-0.2107194244604316,-0.2467625899280575,-0.2973021582733813,-0.3380215827338129,-0.3683812949640287,-0.3636690647482014,-0.3331294964028777,-0.3188489208633093,-0.31,-0.3189568345323741,-0.3417625899280576,-0.3561870503597122,-0.37,-0.3353597122302157,-0.3084892086330935,-0.295,-0.2910791366906474,-0.3205035971223022,-0.3386690647482014,-0.319820143884892,-0.2875179856115107,-0.2751079136690648,-0.275,-0.2701438848920863,-0.2771223021582734,-0.2872661870503596,-0.2790287769784172,-0.2656474820143885,-0.2383812949640287,-0.22,-0.2242086330935252,-0.2065107913669065,-0.225,-0.208093525179856,-0.19,-0.1727338129496402,-0.175,-0.171546762589928,-0.1758633093525179,-0.1725899280575538,-0.1793165467625898,-0.17,-0.1705035971223022,-0.18,-0.1823381294964028,-0.165,-0.1598561151079136,-0.1424460431654675,-0.1300359712230215,-0.1211870503597122,-0.1396762589928057,-0.135,-0.145,-0.1489928057553956,-0.1402877697841726,-0.1334172661870503,-0.135611510791367,-0.164136690647482,-0.185,-0.1882374100719424,-0.1941726618705034,-0.1856474820143885,-0.1725899280575538,-0.1580575539568345,-0.17,-0.18,-0.18,-0.1813669064748199,-0.1584172661870503,-0.1444244604316546,-0.135,-0.1476978417266187,-0.165,-0.1701079136690647,-0.175,-0.1574460431654677,-0.1451079136690646,-0.13,-0.1372661870503597,-0.1546762589928059,-0.1639568345323741,-0.16,-0.15,-0.142841726618705,-0.124136690647482,-0.1337050359712231,-0.1467266187050359,-0.1539568345323741,-0.1593165467625898,-0.1637769784172661,-0.1476258992805753,-0.1267985611510791,-0.1365107913669065,-0.15,-0.1708273381294964,-0.1566187050359712,-0.1546762589928057,-0.1298561151079134,-0.1045323741007195,-0.1078776978417266,-0.0994244604316543,-0.0723021582733812,-0.0547841726618702,-0.033705035971223,0.0048561151079138,0.04,0.025503597122302,-0.0021582733812951,-0.0052158273381294,0.0069784172661871,-0.004388489208633,-0.0303956834532377,-0.0918345323741005,-0.1381654676258995,-0.1780575539568349,-0.2021223021582733,-0.1982733812949642,-0.2106115107913669,-0.2055035971223023,-0.2260791366906474,-0.2434892086330936,-0.2508992805755398,-0.2333453237410071,-0.2203597122302159,-0.225,-0.2327697841726619,-0.2311510791366907,-0.1506834532374091,0.0932014388489241,0.5000359712230227,1.017877697841732,1.52,0
1.6,1.326043165467626,0.81431654676259,0.2844964028776978,-0.0657913669064747,-0.2115827338129496,-0.2134892086330935,-0.1666187050359712,-0.1920143884892086,-0.2402158273381295,-0.2956474820143884,-0.3169424460431654,-0.3112230215827338,-0.2717266187050359,-0.2901438848920863,-0.3093884892086331,-0.3039568345323741,-0.2848201438848921,-0.2886330935251798,-0.2775539568345324,-0.275,-0.2702158273381295,-0.285,-0.3,-0.31,-0.3043525179856115,-0.290863309352518,-0.2570503597122302,-0.263525179856115,-0.2655755395683453,-0.27,-0.2717985611510791,-0.2659712230215827,-0.245,-0.2217985611510791,-0.2303597122302157,-0.2467985611510791,-0.252158273381295,-0.2453237410071942,-0.24,-0.2199640287769784,-0.1960071942446044,-0.1901438848920863,-0.2068705035971223,-0.2155395683453237,-0.2165827338129496,-0.2088129496402879,-0.1823741007194244,-0.156978417266187,-0.1786690647482014,-0.19,-0.19,-0.1801798561151078,-0.18,-0.1673021582733813,-0.1502877697841727,-0.1479496402877698,-0.1456474820143884,-0.126546762589928,-0.1001079136690648,-0.0912230215827338,-0.0798201438848922,-0.08,-0.0810791366906474,-0.1170863309352517,-0.14068345323741,-0.1483093525179855,-0.1554676258992805,-0.1557194244604316,-0.1519064748201439,-0.15,-0.1442805755395683,-0.14,-0.1433453237410071,-0.1478417266187049,-0.1470863309352519,-0.1206474820143884,-0.125,-0.1370503597122301,-0.1587769784172661,-0.1599640287769784,-0.1473021582733812,-0.135,-0.1205755395683454,-0.1158633093525181,-0.1382014388489207,-0.15,-0.1482733812949641,-0.1483812949640288,-0.1306474820143884,-0.1168345323741007,-0.1339568345323741,-0.1515827338129494,-0.1461870503597123,-0.14,-0.1227697841726619,-0.1231294964028777,-0.1252877697841728,-0.1373381294964028,-0.1474820143884892,-0.1662949640287769,-0.1448920863309352,-0.1321582733812951,-0.1277338129496402,-0.1130935251798561,-0.1107194244604315,-0.12,-0.1080575539568349,-0.0692086330935254,-0.0375539568345323,0.002122302158273,0.0297122302158273,0.055,0.0324100719424461,0.0059712230215826,0.0184892086330934,0.003884892086331,-0.0222302158273379,-0.0595683453237407,-0.103705035971223,-0.1375539568345323,-0.1622661870503597,-0.1553597122302156,-0.1689928057553956,-0.195,-0.2066187050359711,-0.2108633093525179,-0.22,-0.2219424460431655,-0.2112589928057553,-0.21,-0.2279856115107912,-0.266618705035971,-0.2728776978417267,-0.222841726618705,-0.0702877697841744,0.2132014388489199,0.6137050359712174,1.0755395683453208,1.475,0
1.65,1.5565107913669065,1.0815827338129496,0.4357913669064748,-0.0753237410071942,-0.2756474820143885,-0.2630575539568345,-0.1923741007194244,-0.1650359712230216,-0.2042446043165468,-0.2745323741007194,-0.319136690647482,-0.3212230215827338,-0.31,-0.2804676258992805,-0.2620863309352518,-0.2601438848920863,-0.2882014388489208,-0.305,-0.2883093525179855,-0.281294964028777,-0.2896402877697841,-0.2673021582733813,-0.265,-0.2876618705035971,-0.2983812949640287,-0.29068345323741,-0.295,-0.2621223021582732,-0.2321223021582733,-0.2358273381294964,-0.263021582733813,-0.2847841726618704,-0.274136690647482,-0.2485971223021582,-0.2272661870503597,-0.215,-0.2307913669064749,-0.2444604316546763,-0.2358992805755395,-0.209820143884892,-0.2099640287769784,-0.1942805755395683,-0.1947841726618705,-0.2,-0.2237410071942446,-0.2160431654676259,-0.2060431654676258,-0.2046762589928057,-0.19,-0.195,-0.21,-0.1936330935251798,-0.174136690647482,-0.165,-0.1578776978417265,-0.1394964028776976,-0.1083812949640288,-0.1157553956834532,-0.1151798561151078,-0.096115107913669,-0.0879496402877698,-0.105,-0.1110791366906475,-0.1101438848920863,-0.1318345323741007,-0.143273381294964,-0.135,-0.1178057553956834,-0.1409352517985611,-0.1635971223021582,-0.16,-0.1626618705035971,-0.1632733812949639,-0.1476258992805753,-0.1301438848920862,-0.1378417266187051,-0.155,-0.1379496402877697,-0.13,-0.139820143884892,-0.1307553956834532,-0.1266187050359712,-0.154748201438849,-0.1571223021582733,-0.1344964028776978,-0.1254316546762589,-0.125,-0.1173021582733812,-0.1185251798561151,-0.1491726618705035,-0.145,-0.1331294964028777,-0.1430215827338129,-0.1387410071942446,-0.1161510791366906,-0.1265107913669064,-0.16,-0.1583093525179856,-0.14,-0.1458992805755395,-0.1394604316546763,-0.135,-0.1373381294964028,-0.14,-0.115,-0.11,-0.1001438848920861,-0.0650359712230211,-0.0580575539568346,-0.0628776978417265,-0.0378776978417261,0.0160071942446046,0.04363309352518,0.0483812949640288,0.0451079136690646,0.0289568345323738,0.0082733812949638,-0.0096402877697842,-0.0285251798561154,-0.0738489208633096,-0.11,-0.1326978417266188,-0.1797482014388492,-0.2251438848920865,-0.2119064748201438,-0.20068345323741,-0.2051079136690645,-0.1844244604316546,-0.1793525179856115,-0.2052517985611511,-0.22,-0.2265467625899281,-0.225,-0.2156474820143884,-0.0838848920863307,0.1503956834532377,0.5541366906474823,1.0779856115107915,1.555,0
1.595,1.3496043165467626,0.8365467625899281,0.2866546762589929,-0.0796402877697841,-0.2699280575539568,-0.3092805755395683,-0.284136690647482,-0.2647482014388489,-0.2621582733812949,-0.301726618705036,-0.3120143884892086,-0.3364388489208633,-0.3448920863309352,-0.3533453237410072,-0.3567985611510791,-0.3544964028776978,-0.330179856115108,-0.3293165467625899,-0.33,-0.33,-0.3350359712230215,-0.3540287769784173,-0.3588489208633093,-0.34,-0.315,-0.315,-0.3117625899280575,-0.3167625899280575,-0.3451438848920863,-0.3464028776978417,-0.3229496402877698,-0.2984892086330935,-0.285,-0.299820143884892,-0.300863309352518,-0.305,-0.2994604316546763,-0.2875539568345324,-0.2612949640287769,-0.2481294964028776,-0.2463309352517984,-0.2500359712230215,-0.2654676258992806,-0.2719424460431655,-0.2672302158273384,-0.2311510791366906,-0.2273021582733813,-0.2357553956834532,-0.24,-0.2476618705035971,-0.2488848920863309,-0.2495683453237409,-0.231978417266187,-0.2114748201438848,-0.215,-0.2317625899280575,-0.2318345323741007,-0.2247122302158273,-0.2087769784172661,-0.1840287769784173,-0.155,-0.1426978417266188,-0.1375539568345324,-0.1460071942446043,-0.172302158273381,-0.1729136690647482,-0.1741007194244604,-0.185,-0.176726618705036,-0.178273381294964,-0.19,-0.1936330935251798,-0.2029136690647482,-0.1989208633093525,-0.1820143884892087,-0.1675539568345324,-0.18,-0.1843525179856115,-0.1871942446043165,-0.1862589928057554,-0.19,-0.1836690647482015,-0.1866187050359711,-0.190071942446043,-0.1914748201438848,-0.1860431654676259,-0.179136690647482,-0.17,-0.16,-0.1634172661870505,-0.1592446043165468,-0.1653956834532374,-0.1711510791366906,-0.175,-0.1861151079136689,-0.1734892086330935,-0.1799280575539566,-0.1765827338129496,-0.1768705035971223,-0.1759712230215827,-0.1862230215827338,-0.2,-0.18931654676259,-0.185,-0.154820143884892,-0.135,-0.1260071942446043,-0.1229496402877697,-0.1029856115107917,-0.060719424460432,-0.0183812949640289,0.0002877697841726,0.004568345323741,-0.0160071942446042,-0.0271223021582733,-0.03,-0.03,-0.0474460431654677,-0.0856115107913669,-0.1231654676258992,-0.1713669064748199,-0.2088848920863307,-0.22,-0.23,-0.2233093525179856,-0.2398920863309352,-0.235,-0.245,-0.245,-0.2410791366906475,-0.2523741007194243,-0.2724820143884892,-0.2764388489208633,-0.2067266187050364,-0.0358273381294982,0.2988129496402842,0.7563309352517928,1.2254316546762527,1.595,0
1.5,1.313093525179856,0.8144244604316546,0.2104676258992805,-0.2231294964028777,-0.3986330935251799,-0.4092446043165467,-0.3853237410071942,-0.365,-0.388453237410072,-0.4215107913669065,-0.45,-0.4357913669064748,-0.415,-0.4193525179856115,-0.4486330935251799,-0.4564028776978417,-0.46,-0.4619064748201439,-0.4390647482014388,-0.4294964028776978,-0.4290287769784173,-0.4373381294964029,-0.4310791366906475,-0.4257913669064748,-0.4312589928057553,-0.4316906474820143,-0.4146402877697841,-0.401294964028777,-0.4172302158273381,-0.4192446043165467,-0.415,-0.4121942446043165,-0.4023381294964029,-0.3901438848920863,-0.3866187050359712,-0.3761870503597121,-0.351294964028777,-0.3610431654676259,-0.355,-0.3439928057553956,-0.3264028776978417,-0.3361151079136691,-0.34,-0.3448920863309352,-0.3327338129496403,-0.337158273381295,-0.33,-0.3215827338129496,-0.318201438848921,-0.3362589928057554,-0.34,-0.3483093525179856,-0.3394964028776979,-0.3139208633093525,-0.292230215827338,-0.309820143884892,-0.31,-0.2966187050359711,-0.2740287769784172,-0.27,-0.2701438848920864,-0.2935611510791367,-0.2891726618705035,-0.3,-0.304136690647482,-0.3076618705035971,-0.3138129496402878,-0.3005755395683452,-0.29,-0.3020503597122302,-0.3444244604316546,-0.3388129496402878,-0.3129856115107913,-0.2882733812949639,-0.2756115107913668,-0.2812589928057554,-0.2828776978417266,-0.3048920863309354,-0.3065107913669064,-0.3029856115107913,-0.3028417266187051,-0.2768705035971223,-0.2746402877697841,-0.2711151079136691,-0.2842805755395684,-0.2931654676258993,-0.2883093525179856,-0.279568345323741,-0.2587769784172661,-0.2554676258992805,-0.2592086330935251,-0.26363309352518,-0.277158273381295,-0.2591007194244604,-0.2651079136690648,-0.26,-0.265,-0.27,-0.2739928057553958,-0.2800359712230215,-0.2929136690647482,-0.285,-0.2607194244604315,-0.238669064748201,-0.1948561151079136,-0.1863309352517985,-0.1778057553956834,-0.1814028776978416,-0.1515107913669064,-0.1139208633093522,-0.1074100719424458,-0.1,-0.1083453237410071,-0.1174820143884892,-0.1296043165467625,-0.1406834532374102,-0.1696762589928062,-0.2059712230215828,-0.2414748201438847,-0.2701079136690648,-0.295,-0.3050719424460432,-0.3064028776978416,-0.315755395683453,-0.3256474820143885,-0.3383453237410072,-0.3373021582733813,-0.3412230215827339,-0.345,-0.3369064748201436,-0.3214028776978415,-0.3216187050359712,-0.345,-0.3038848920863306,-0.163920863309351,0.13197841726619,0.5899280575539627,1.1040647482014376,1.505,0
1.57,1.3626258992805755,0.909640287769784,0.3895323741007194,0.0084532374100718,-0.2001079136690648,-0.2644244604316547,-0.2486690647482014,-0.2379496402877697,-0.254568345323741,-0.2935611510791367,-0.3278057553956834,-0.3444244604316546,-0.3480215827338129,-0.3526618705035971,-0.3692805755395684,-0.37,-0.3762230215827338,-0.378705035971223,-0.3463669064748201,-0.3426258992805755,-0.3439928057553957,-0.3421942446043165,-0.3483453237410072,-0.36,-0.3667985611510791,-0.3358273381294964,-0.3156474820143884,-0.3096762589928057,-0.3209712230215827,-0.325,-0.327589928057554,-0.3191007194244604,-0.3107913669064748,-0.2974460431654676,-0.2933453237410071,-0.2767266187050359,-0.2873381294964029,-0.3042446043165467,-0.3040647482014388,-0.2881294964028775,-0.2636330935251799,-0.2510071942446042,-0.2223021582733813,-0.2274460431654677,-0.2528417266187051,-0.2555395683453237,-0.245,-0.2373021582733812,-0.23068345323741,-0.2209352517985611,-0.2375539568345324,-0.2458273381294964,-0.2496043165467625,-0.2412949640287769,-0.2249280575539567,-0.1980575539568342,-0.1554676258992805,-0.147769784172662,-0.1657553956834532,-0.1871223021582734,-0.194388489208633,-0.179640287769784,-0.17,-0.16,-0.1952158273381296,-0.2152517985611511,-0.2165467625899279,-0.205,-0.2116906474820145,-0.2066906474820143,-0.1950359712230215,-0.19,-0.1931654676258993,-0.2146762589928057,-0.206798561151079,-0.2069784172661869,-0.2048201438848921,-0.1875179856115107,-0.18931654676259,-0.2,-0.21,-0.2186330935251798,-0.2103237410071942,-0.2040287769784171,-0.1837050359712229,-0.18,-0.1808273381294964,-0.2,-0.2090647482014389,-0.2071582733812948,-0.2003956834532374,-0.1671582733812948,-0.1627697841726619,-0.1832374100719427,-0.2037769784172661,-0.2026978417266187,-0.205,-0.205,-0.1894964028776974,-0.1881294964028776,-0.1757553956834532,-0.17,-0.1708633093525181,-0.1666546762589928,-0.1426258992805753,-0.1010431654676256,-0.08,-0.0625899280575538,-0.0464028776978416,-0.0290287769784173,-0.0373381294964029,-0.0437050359712228,-0.0310431654676258,-0.0272661870503597,-0.0484532374100723,-0.082769784172662,-0.1231654676258992,-0.1730215827338131,-0.2152517985611513,-0.2321223021582734,-0.2408633093525182,-0.2612230215827338,-0.275,-0.2710791366906477,-0.2886690647482015,-0.2910431654676259,-0.2944244604316546,-0.285,-0.29,-0.2954316546762592,-0.3085251798561151,-0.3181654676258992,-0.3038489208633086,-0.2062949640287749,-0.0083093525179852,0.3283812949640308,0.7392086330935292,1.144388489208638,1.445,0
1.615,1.4803597122302157,0.9800719424460432,0.3348920863309352,-0.1664748201438849,-0.3964748201438849,-0.4040647482014388,-0.3257194244604317,-0.295,-0.3293525179856115,-0.3980575539568345,-0.4450359712230215,-0.4517985611510791,-0.426115107913669,-0.400431654676259,-0.4031654676258993,-0.4039568345323741,-0.4260791366906475,-0.4391007194244604,-0.4320143884892086,-0.4137769784172662,-0.400431654676259,-0.3949640287769785,-0.4019064748201439,-0.4073381294964029,-0.4340287769784173,-0.419820143884892,-0.4,-0.3952877697841727,-0.3869064748201438,-0.38,-0.3853956834532374,-0.3979136690647482,-0.3975179856115108,-0.3817625899280575,-0.3514388489208633,-0.3453956834532374,-0.3314748201438849,-0.35,-0.3616546762589929,-0.345,-0.325,-0.3158633093525179,-0.2937410071942446,-0.3016906474820143,-0.3202517985611511,-0.325,-0.3078776978417265,-0.305,-0.3094964028776978,-0.3038848920863309,-0.2982374100719424,-0.33,-0.3262589928057554,-0.3026978417266187,-0.2832733812949639,-0.275,-0.2730575539568346,-0.2765467625899281,-0.2901079136690647,-0.276654676258993,-0.2705395683453237,-0.2657913669064748,-0.2787050359712231,-0.295,-0.3144244604316546,-0.3499640287769783,-0.3342086330935252,-0.317841726618705,-0.307158273381295,-0.332841726618705,-0.3321582733812949,-0.3285971223021582,-0.325,-0.325,-0.3116546762589928,-0.3019424460431654,-0.315,-0.32,-0.3226618705035972,-0.3251079136690648,-0.3230935251798562,-0.3059712230215828,-0.295,-0.2908633093525179,-0.3003956834532374,-0.3062589928057553,-0.3196402877697841,-0.31,-0.3022302158273379,-0.2939928057553956,-0.285,-0.285,-0.2973741007194243,-0.314496402877698,-0.3117625899280574,-0.305,-0.294136690647482,-0.2969784172661869,-0.3025539568345324,-0.3133453237410073,-0.3343525179856115,-0.3270503597122303,-0.3024100719424463,-0.2635611510791364,-0.2410791366906474,-0.2300359712230215,-0.2189568345323741,-0.2196043165467625,-0.2060071942446046,-0.1713669064748198,-0.1302877697841727,-0.1311510791366906,-0.147410071942446,-0.1530575539568346,-0.145,-0.1542805755395684,-0.1783093525179856,-0.1862949640287769,-0.2301079136690645,-0.2870143884892084,-0.3094964028776981,-0.3344604316546763,-0.35,-0.3568345323741007,-0.3497122302158274,-0.3474100719424461,-0.3667985611510792,-0.3858273381294964,-0.39,-0.3970503597122303,-0.3915107913669066,-0.3949280575539568,-0.39,-0.3524460431654677,-0.2518705035971231,0.0010791366906502,0.3932733812949669,0.8870143884892102,1.355,0
1.76,1.621043165467626,1.1477338129496404,0.5408992805755397,0.0393525179856115,-0.2244604316546762,-0.2821223021582734,-0.2399640287769784,-0.2173741007194244,-0.2203956834532373,-0.2762589928057554,-0.3169424460431654,-0.3314388489208633,-0.315431654676259,-0.31,-0.3167985611510791,-0.3202517985611511,-0.325,-0.3371582733812949,-0.3431654676258993,-0.3340647482014389,-0.325,-0.3190287769784173,-0.315,-0.31,-0.3310071942446043,-0.3152158273381295,-0.2967625899280575,-0.2816906474820144,-0.2901438848920863,-0.2914028776978417,-0.2970503597122301,-0.3034892086330935,-0.2860431654676258,-0.275,-0.2625899280575539,-0.2706834532374101,-0.2744604316546763,-0.2613309352517987,-0.25,-0.2468705035971223,-0.2318345323741007,-0.215,-0.2184892086330935,-0.2230575539568345,-0.21,-0.2023021582733813,-0.2096043165467625,-0.1892446043165468,-0.1807913669064748,-0.1903237410071942,-0.1938848920863309,-0.185431654676259,-0.201978417266187,-0.2070503597122302,-0.1950719424460432,-0.1816187050359712,-0.1668345323741007,-0.1682733812949642,-0.1437410071942446,-0.1412230215827338,-0.1243525179856115,-0.1117985611510792,-0.12,-0.1220143884892085,-0.1344604316546762,-0.14,-0.1527338129496402,-0.1551798561151079,-0.165,-0.158273381294964,-0.1601798561151078,-0.165,-0.1691726618705036,-0.1789208633093525,-0.1660071942446043,-0.155,-0.163201438848921,-0.1462949640287769,-0.1428057553956834,-0.1512589928057554,-0.155,-0.1468345323741007,-0.14,-0.1398561151079138,-0.1335251798561151,-0.1280215827338129,-0.1258633093525179,-0.135,-0.1323381294964028,-0.13,-0.1342446043165468,-0.1246043165467625,-0.1188489208633093,-0.115,-0.125,-0.1310431654676256,-0.145,-0.1297482014388488,-0.1181294964028776,-0.1196762589928057,-0.1301079136690646,-0.1505395683453238,-0.13,-0.13,-0.119820143884892,-0.0947841726618705,-0.0660071942446043,-0.0420503597122302,-0.0343884892086333,-0.0151438848920864,0.0165467625899275,0.05,0.06,0.06,0.0428776978417266,0.037697841726619,0.0079136690647484,-0.0274460431654677,-0.0706115107913669,-0.095,-0.12636690647482,-0.1464748201438846,-0.1697482014388488,-0.1814028776978415,-0.1999640287769784,-0.2196762589928057,-0.2014388489208633,-0.1870143884892086,-0.205,-0.2128417266187048,-0.2394964028776974,-0.2649640287769784,-0.2814388489208633,-0.2067266187050364,-0.0455755395683469,0.2459712230215797,0.694424460431649,1.2047122302158204,1.61,0
1.68,1.3977338129496402,0.8198561151079137,0.2110791366906474,-0.1767625899280576,-0.3101438848920863,-0.2983093525179855,-0.2735971223021582,-0.2839208633093525,-0.3538129496402878,-0.3852877697841727,-0.39431654676259,-0.3833453237410072,-0.395,-0.3793884892086331,-0.361294964028777,-0.3839208633093525,-0.401978417266187,-0.3924460431654676,-0.3784532374100719,-0.3761510791366906,-0.3757913669064748,-0.3763669064748201,-0.3929856115107915,-0.41,-0.3885611510791367,-0.3610071942446042,-0.3562230215827338,-0.3471942446043165,-0.3418345323741007,-0.35431654676259,-0.3847841726618705,-0.3760791366906474,-0.3511510791366905,-0.3489568345323741,-0.335,-0.3350719424460432,-0.3612589928057553,-0.3388129496402877,-0.3107553956834532,-0.3034532374100719,-0.304820143884892,-0.3042086330935252,-0.3047122302158273,-0.3267985611510792,-0.312230215827338,-0.284028776978417,-0.27,-0.2682374100719424,-0.2651798561151078,-0.2564388489208633,-0.2659352517985611,-0.2705035971223021,-0.2514748201438849,-0.2525539568345323,-0.2615827338129497,-0.2587769784172661,-0.2314388489208633,-0.2273381294964029,-0.2226978417266187,-0.2051798561151081,-0.2415107913669065,-0.2691366906474821,-0.2676258992805757,-0.27,-0.2668705035971223,-0.2723021582733811,-0.26,-0.2658273381294964,-0.3079136690647485,-0.2909712230215827,-0.2810431654676259,-0.2848561151079135,-0.2708992805755394,-0.26,-0.270791366906475,-0.2773741007194246,-0.2797841726618705,-0.2834892086330935,-0.2684532374100718,-0.2526978417266187,-0.2573381294964028,-0.2660791366906477,-0.2712230215827338,-0.2665827338129496,-0.2548920863309354,-0.2570503597122303,-0.2494964028776978,-0.2404676258992805,-0.26568345323741,-0.272410071942446,-0.2683812949640287,-0.2656474820143886,-0.2512949640287769,-0.2487050359712231,-0.2527338129496404,-0.2752877697841727,-0.2792086330935251,-0.2798201438848922,-0.2661510791366906,-0.2542446043165466,-0.248093525179856,-0.2559352517985611,-0.2699280575539569,-0.2720143884892084,-0.2359352517985611,-0.2058992805755394,-0.2039208633093524,-0.1951079136690647,-0.1751798561151076,-0.1605035971223019,-0.1412230215827338,-0.0901079136690646,-0.0607553956834534,-0.087841726618705,-0.1249280575539569,-0.117661870503597,-0.1341007194244608,-0.1561870503597123,-0.1788489208633095,-0.2157194244604323,-0.2673741007194246,-0.293021582733813,-0.3010791366906477,-0.3328417266187051,-0.3378057553956833,-0.32,-0.3266546762589928,-0.3456834532374101,-0.3688489208633098,-0.3562589928057553,-0.3683093525179858,-0.3682014388489207,-0.3541726618705035,-0.3354316546762588,-0.2267266187050344,0.0365467625899282,0.4457194244604345,0.9624460431654728,1.405,0
1.635,1.3761870503597122,0.8321942446043166,0.2551438848920863,-0.1050719424460431,-0.2580575539568345,-0.2672661870503597,-0.2452158273381295,-0.2230215827338129,-0.2602517985611511,-0.3062230215827338,-0.3275179856115108,-0.3254676258992806,-0.326294964028777,-0.33,-0.3234172661870503,-0.33,-0.3383812949640287,-0.3291007194244604,-0.3153237410071942,-0.3124460431654676,-0.3247841726618705,-0.3366906474820144,-0.33,-0.3240647482014389,-0.3109712230215827,-0.304820143884892,-0.3084532374100719,-0.305863309352518,-0.2948201438848921,-0.305,-0.2996043165467625,-0.2870863309352517,-0.2774820143884892,-0.27,-0.27,-0.2732014388489209,-0.2814748201438848,-0.2783812949640288,-0.2666546762589929,-0.2575539568345323,-0.2429856115107914,-0.2304316546762589,-0.2168705035971223,-0.2216906474820143,-0.2452517985611511,-0.2385611510791367,-0.22,-0.2290647482014388,-0.225,-0.2288848920863309,-0.2383812949640287,-0.234640287769784,-0.2212589928057554,-0.2169064748201438,-0.2124100719424459,-0.1911510791366906,-0.1910431654676259,-0.1753597122302157,-0.1647841726618705,-0.1476618705035972,-0.145,-0.13,-0.1430575539568346,-0.1587410071942446,-0.1729496402877697,-0.1900719424460432,-0.1928057553956834,-0.1763669064748199,-0.1685611510791366,-0.1685611510791366,-0.177841726618705,-0.1835971223021582,-0.1948920863309352,-0.1929496402877697,-0.195,-0.1861151079136692,-0.1642086330935251,-0.1627697841726619,-0.1763309352517985,-0.1946762589928057,-0.19,-0.1719424460431656,-0.1588489208633092,-0.15,-0.1576978417266187,-0.16,-0.164820143884892,-0.1633812949640287,-0.1569424460431655,-0.1439928057553956,-0.1268705035971223,-0.1326258992805755,-0.1511870503597121,-0.159748201438849,-0.1816187050359712,-0.174388489208633,-0.159568345323741,-0.1510071942446043,-0.1626618705035973,-0.1761151079136691,-0.1846762589928057,-0.1752877697841727,-0.1614028776978418,-0.1492805755395682,-0.14,-0.13,-0.1189568345323741,-0.1057913669064748,-0.0768345323741007,-0.0565467625899279,-0.0238489208633092,-0.0011510791366906,0.0125899280575539,-0.0009712230215826,-0.0095323741007194,-0.0223741007194246,-0.02,-0.0258633093525179,-0.071438848920863,-0.1290287769784169,-0.1685971223021584,-0.2028417266187051,-0.2160431654676259,-0.2265827338129496,-0.2251438848920862,-0.2374100719424461,-0.2422661870503597,-0.2483453237410071,-0.244388489208633,-0.2529496402877697,-0.2534892086330934,-0.2452158273381296,-0.2636330935251799,-0.2396402877697842,-0.1318705035971231,0.1081294964028802,0.5261510791366937,1.0277697841726634,1.495,0
1.405,1.244388489208633,0.8033812949640288,0.2738129496402877,-0.1501438848920864,-0.394136690647482,-0.4771942446043165,-0.4340287769784172,-0.3862589928057554,-0.3828057553956834,-0.4046762589928058,-0.4485251798561151,-0.4787410071942446,-0.5,-0.4961510791366906,-0.5,-0.4933453237410071,-0.485,-0.4771942446043165,-0.4762949640287769,-0.499136690647482,-0.508273381294964,-0.4947122302158273,-0.4802517985611511,-0.4775179856115107,-0.4722302158273381,-0.4664388489208633,-0.4792086330935252,-0.4726978417266187,-0.4888129496402877,-0.4943525179856115,-0.5031654676258993,-0.515,-0.495,-0.495,-0.5,-0.4943884892086331,-0.4735971223021581,-0.4801798561151079,-0.477841726618705,-0.47,-0.4569424460431655,-0.4415467625899281,-0.4349640287769784,-0.4229496402877697,-0.4170143884892086,-0.42,-0.4160071942446042,-0.4100359712230215,-0.415,-0.415,-0.4079496402877698,-0.405,-0.4197841726618705,-0.4334172661870504,-0.4242805755395682,-0.415,-0.3994604316546761,-0.370503597122302,-0.355,-0.3506474820143884,-0.375,-0.3660071942446042,-0.3598201438848921,-0.3516906474820143,-0.3482014388489208,-0.3558633093525181,-0.3813309352517987,-0.3922661870503597,-0.3965107913669066,-0.4092446043165468,-0.4077338129496403,-0.4024460431654677,-0.3958633093525179,-0.4017985611510791,-0.41,-0.414820143884892,-0.4210071942446046,-0.40568345323741,-0.3937050359712231,-0.3808633093525179,-0.3826258992805756,-0.395,-0.4088129496402876,-0.405,-0.4252517985611507,-0.4045683453237407,-0.3714388489208633,-0.3791007194244605,-0.415,-0.4190287769784173,-0.4325179856115108,-0.4270143884892087,-0.4170143884892081,-0.3810431654676257,-0.3914748201438849,-0.4049280575539569,-0.4169064748201441,-0.423884892086331,-0.435,-0.4271582733812948,-0.4251798561151076,-0.4232014388489207,-0.4325539568345323,-0.4221223021582733,-0.4327338129496405,-0.4351438848920863,-0.4083093525179856,-0.3844964028776977,-0.3696762589928056,-0.3497482014388486,-0.34,-0.3194604316546758,-0.2685971223021576,-0.2610791366906477,-0.2725179856115108,-0.2894964028776979,-0.2867625899280574,-0.2986330935251801,-0.3515107913669064,-0.3961151079136693,-0.4287769784172667,-0.4606834532374101,-0.4816906474820143,-0.4879856115107915,-0.5184532374100723,-0.5439208633093527,-0.5462589928057554,-0.545,-0.5348920863309351,-0.5264028776978417,-0.5262589928057554,-0.5623021582733816,-0.5840647482014389,-0.5517985611510783,-0.4239208633093526,-0.1663669064748177,0.2652517985611592,0.7936690647482058,1.25,0
2.1,1.9264748201438848,1.364568345323741,0.6721223021582734,0.1588848920863309,-0.0204316546762589,0.0260431654676258,0.1192086330935251,0.125,0.0889568345323741,0.034136690647482,0.0122302158273381,0.0140287769784172,0.043273381294964,0.04,0.0324820143884892,0.0156474820143884,0.0030935251798561,0.0034892086330935,0.0049280575539568,0.0233453237410071,0.0335251798561151,0.03,0.03,0.025,0.019568345323741,0.0188489208633093,0.0395323741007194,0.0536330935251798,0.0491007194244604,0.0424460431654675,0.0240647482014388,0.0112949640287769,0.0355395683453237,0.0585611510791366,0.0653956834532374,0.0609352517985611,0.0614388489208633,0.065,0.078273381294964,0.090071942446043,0.1203237410071942,0.1385251798561151,0.1430575539568345,0.1342805755395683,0.1174460431654677,0.12,0.1318345323741007,0.1691726618705034,0.1798920863309352,0.184136690647482,0.1585971223021583,0.1496043165467625,0.1288848920863309,0.1114028776978417,0.149748201438849,0.1868345323741006,0.2002158273381295,0.19,0.185,0.1750719424460432,0.181546762589928,0.1681294964028777,0.1791366906474821,0.1575899280575539,0.1328776978417266,0.1316187050359711,0.1410431654676259,0.1352517985611511,0.12,0.1410431654676259,0.160251798561151,0.1429136690647482,0.1260791366906475,0.1207553956834532,0.113705035971223,0.1052877697841726,0.1081294964028777,0.1296402877697842,0.1449640287769784,0.1248561151079138,0.0917985611510791,0.1104316546762589,0.1127338129496402,0.1017985611510789,0.0864028776978415,0.0922302158273382,0.0880935251798561,0.0964388489208633,0.1174100719424461,0.125,0.1109712230215826,0.115,0.104388489208633,0.0875539568345322,0.0707194244604318,0.0861151079136689,0.0970503597122302,0.0802158273381294,0.0584532374100717,0.0601798561151076,0.0648561151079137,0.0564388489208633,0.07,0.0853956834532374,0.0976258992805753,0.1005395683453238,0.1256474820143884,0.1381294964028777,0.1599640287769784,0.1785971223021584,0.2122661870503594,0.2272661870503597,0.2153956834532374,0.1817266187050358,0.195,0.1771942446043166,0.1651798561151079,0.1438129496402878,0.1166906474820143,0.0747122302158271,0.0445323741007196,0.0211870503597123,-0.0012949640287769,-0.0349640287769784,-0.0313669064748199,-0.02,-0.02,-0.027410071942446,-0.03,-0.0469784172661871,-0.06,-0.075,-0.075,-0.0308633093525179,0.120935251798562,0.3861870503597093,0.7909352517985582,1.2717985611510776,1.725,0
1.63,1.4069424460431654,0.9095323741007192,0.3497482014388488,-0.04931654676259,-0.219568345323741,-0.2321942446043165,-0.1934532374100719,-0.1758273381294964,-0.2206115107913669,-0.2692446043165468,-0.2732374100719424,-0.265,-0.2607194244604316,-0.2661510791366906,-0.2823381294964029,-0.2924820143884892,-0.30068345323741,-0.2871942446043165,-0.282410071942446,-0.275,-0.285,-0.2864748201438848,-0.285,-0.2775179856115107,-0.2560791366906474,-0.2264388489208633,-0.2476258992805755,-0.265,-0.2723741007194245,-0.2706474820143885,-0.2505035971223021,-0.2316906474820143,-0.2247122302158273,-0.2186330935251798,-0.2336330935251798,-0.2287769784172661,-0.2323021582733813,-0.224820143884892,-0.2128417266187049,-0.2004316546762589,-0.19,-0.1880935251798561,-0.1999640287769784,-0.195,-0.1970143884892086,-0.1839928057553956,-0.1670143884892085,-0.16,-0.1669424460431655,-0.1794604316546763,-0.1829496402877698,-0.18,-0.1750719424460431,-0.1494964028776977,-0.1473741007194243,-0.1453956834532374,-0.1577697841726619,-0.135503597122302,-0.1206834532374099,-0.1,-0.082841726618705,-0.08,-0.0992805755395684,-0.1116187050359713,-0.1303956834532375,-0.1502877697841727,-0.1436690647482013,-0.135,-0.1372661870503598,-0.1542446043165468,-0.1632014388489209,-0.1725539568345322,-0.1508633093525178,-0.1367985611510791,-0.1349280575539567,-0.1351798561151079,-0.1363309352517984,-0.137841726618705,-0.1487050359712231,-0.1234532374100717,-0.1202517985611513,-0.1133453237410073,-0.1296043165467625,-0.1454676258992808,-0.15,-0.1399280575539568,-0.12431654676259,-0.11,-0.1044604316546761,-0.1080575539568346,-0.1175539568345323,-0.1260071942446043,-0.1344964028776979,-0.125,-0.1155755395683453,-0.105,-0.103453237410072,-0.1069424460431655,-0.1258633093525179,-0.135,-0.1253597122302153,-0.1082014388489207,-0.0956115107913669,-0.10863309352518,-0.0963669064748202,-0.1,-0.0983453237410071,-0.0663309352517984,-0.0437050359712225,-0.0135611510791365,0.0238129496402876,0.0715827338129497,0.0757194244604315,0.0516906474820142,0.0425179856115107,0.0547482014388489,0.0482374100719425,0.0330935251798558,-0.0062949640287769,-0.0535251798561154,-0.09158273381295,-0.1227338129496405,-0.1441726618705036,-0.14,-0.145,-0.1357194244604315,-0.1581294964028776,-0.1782374100719425,-0.1847841726618702,-0.1678057553956833,-0.1579136690647482,-0.1705755395683454,-0.1871942446043169,-0.1695683453237404,-0.0528776978417266,0.2267625899280602,0.6714028776978509,1.218669064748206,1.68,0
1.875,1.8573741007194244,1.5116187050359713,0.971906474820144,0.45568345323741,0.1208633093525179,0.0155395683453237,0.0370503597122302,0.0656115107913669,0.0814388489208633,0.0809712230215827,0.0693525179856115,0.0515827338129496,0.0533812949640287,0.05,0.0339568345323741,0.0137769784172661,0.0276978417266187,0.040251798561151,0.0383453237410071,0.0340287769784172,0.0377697841726618,0.0278417266187049,-0.0022661870503597,0.0155035971223021,0.0350359712230215,0.0432374100719424,0.0543165467625899,0.0696402877697841,0.0514748201438849,0.03,0.0172661870503597,0.0424460431654676,0.0525899280575539,0.0738489208633093,0.085,0.0642446043165467,0.0361870503597121,0.0332733812949641,0.0597122302158273,0.0972302158273382,0.1212589928057553,0.1294604316546763,0.1170143884892086,0.1091366906474819,0.105,0.1077338129496402,0.1018705035971223,0.1273381294964028,0.1406115107913669,0.1447122302158274,0.1119064748201438,0.0820503597122302,0.0890287769784173,0.1107553956834532,0.1382374100719425,0.1585611510791366,0.1675179856115107,0.1379496402877698,0.1288848920863309,0.1483453237410071,0.1644244604316546,0.1689568345323741,0.1816906474820144,0.185,0.1726258992805756,0.147410071942446,0.1489928057553956,0.1323021582733813,0.1458992805755395,0.1582014388489209,0.16,0.1434892086330934,0.1151798561151079,0.0969064748201439,0.11,0.1199280575539569,0.1225539568345323,0.1305755395683452,0.1054316546762589,0.0966546762589926,0.0936330935251797,0.1125539568345323,0.1357194244604316,0.1360791366906474,0.1457553956834533,0.145,0.1485251798561151,0.1382733812949639,0.1300719424460432,0.129388489208633,0.1536690647482014,0.1635971223021584,0.145,0.1390647482014388,0.1308633093525179,0.135,0.1305395683453237,0.135,0.1380575539568345,0.1198561151079137,0.1116546762589928,0.101546762589928,0.095503597122302,0.1158992805755394,0.1496043165467625,0.1824100719424461,0.1824460431654675,0.1892446043165468,0.2008273381294964,0.216474820143885,0.2510791366906477,0.2828057553956833,0.2982374100719424,0.2900359712230215,0.28,0.2772661870503597,0.265431654676259,0.2333812949640284,0.1920863309352519,0.1674820143884892,0.120251798561151,0.0838489208633092,0.0674460431654677,0.0440647482014388,0.0401798561151079,0.0416187050359711,0.0415827338129496,0.0354316546762589,0.0120863309352515,0.0035611510791365,0.0106115107913669,-0.0001798561151079,0.0065827338129497,0.0509352517985607,0.1876618705035969,0.4170143884892099,0.7984532374100753,1.2453237410071922,1.655,0
1.38,1.1639208633093523,0.6994244604316546,0.1633453237410071,-0.24931654676259,-0.4467985611510791,-0.5012589928057554,-0.4628776978417266,-0.4608273381294964,-0.4906115107913669,-0.5343525179856116,-0.5683812949640288,-0.565,-0.5503597122302158,-0.5588489208633094,-0.575,-0.5583453237410072,-0.55431654676259,-0.5528057553956836,-0.562589928057554,-0.5652158273381295,-0.5465467625899281,-0.5617625899280576,-0.5594964028776979,-0.5462589928057554,-0.545,-0.5342805755395683,-0.53,-0.5203956834532375,-0.5311870503597123,-0.535,-0.5218345323741007,-0.5183093525179857,-0.53,-0.5191007194244603,-0.4915107913669064,-0.4793884892086331,-0.4873021582733813,-0.502589928057554,-0.5039208633093525,-0.4862949640287769,-0.4738848920863309,-0.4665467625899281,-0.4750359712230216,-0.4729496402877697,-0.4529856115107913,-0.4344964028776978,-0.4260071942446042,-0.4224820143884892,-0.4219424460431655,-0.4344604316546763,-0.4529496402877698,-0.45068345323741,-0.4350719424460431,-0.4247482014388488,-0.4111870503597121,-0.4007913669064749,-0.4138848920863309,-0.4176258992805755,-0.397410071942446,-0.3719424460431654,-0.3614748201438847,-0.3523381294964028,-0.3401798561151079,-0.3715467625899282,-0.405,-0.4102877697841727,-0.4187769784172662,-0.4254676258992805,-0.415,-0.415,-0.4132014388489209,-0.4262230215827338,-0.4252877697841726,-0.4267985611510791,-0.4133812949640288,-0.41,-0.3989928057553953,-0.402158273381295,-0.4132374100719422,-0.4184532374100718,-0.4147482014388486,-0.4077697841726618,-0.4046043165467626,-0.395,-0.4081654676258995,-0.4102158273381296,-0.41431654676259,-0.415,-0.4039208633093523,-0.3990287769784173,-0.3874820143884892,-0.3940287769784175,-0.41,-0.4220143884892086,-0.4314748201438849,-0.425071942446043,-0.405,-0.4069424460431655,-0.399568345323741,-0.395,-0.4098201438848923,-0.4208992805755396,-0.3986690647482016,-0.3821223021582733,-0.355,-0.3501438848920862,-0.3366546762589928,-0.3086690647482015,-0.2943525179856112,-0.2583093525179852,-0.2103956834532374,-0.2123741007194246,-0.2464028776978423,-0.242230215827338,-0.2325179856115107,-0.2494964028776979,-0.2829496402877703,-0.3086330935251801,-0.3462949640287769,-0.3861151079136692,-0.40658273381295,-0.4227338129496405,-0.4483453237410071,-0.4603237410071943,-0.4538489208633092,-0.4546402877697842,-0.46,-0.4766187050359712,-0.4748920863309351,-0.4664028776978416,-0.47,-0.48,-0.4881294964028779,-0.4595683453237404,-0.3399640287769784,-0.0863669064748177,0.3322302158273462,0.8356474820143927,1.3,0
1.6,1.5809712230215829,1.1726978417266187,0.5524460431654676,0.0769784172661871,-0.1901438848920863,-0.227410071942446,-0.177410071942446,-0.1378057553956834,-0.1738848920863309,-0.2089928057553956,-0.2299280575539568,-0.2414028776978417,-0.24,-0.2308633093525179,-0.2394964028776978,-0.2456115107913669,-0.238525179856115,-0.2396043165467626,-0.2430575539568344,-0.235,-0.2338848920863309,-0.2548561151079136,-0.2628776978417267,-0.2456115107913669,-0.2366546762589928,-0.2405395683453237,-0.2338129496402878,-0.2167266187050359,-0.2396402877697841,-0.2429856115107913,-0.2144964028776979,-0.1987410071942446,-0.2096762589928057,-0.1994244604316547,-0.19,-0.1965827338129496,-0.2138489208633093,-0.1958273381294965,-0.1783093525179856,-0.1787050359712231,-0.1441726618705036,-0.1425899280575539,-0.17,-0.1845683453237409,-0.1630215827338129,-0.145,-0.1377338129496404,-0.125,-0.1370863309352518,-0.1633453237410072,-0.1538489208633095,-0.1153956834532375,-0.0747841726618705,-0.0290647482014391,-0.0051798561151079,-0.0184532374100719,-0.0258273381294964,-0.0164388489208633,-0.0206474820143885,-0.03,-0.0467625899280575,-0.061007194244604,-0.0722302158273382,-0.0875539568345323,-0.0884532374100719,-0.1,-0.0965827338129496,-0.0829496402877698,-0.0870503597122302,-0.1129496402877696,-0.1120503597122302,-0.1063309352517984,-0.125,-0.125,-0.0875899280575538,-0.0861151079136689,-0.0947482014388488,-0.1032374100719425,-0.0929856115107914,-0.088705035971223,-0.0714388489208633,-0.0770863309352517,-0.0877338129496403,-0.1001798561151079,-0.105,-0.11,-0.115,-0.1008633093525181,-0.0733093525179856,-0.096978417266187,-0.115,-0.1107553956834533,-0.1092446043165469,-0.1069784172661871,-0.0795683453237411,-0.0687769784172661,-0.089820143884892,-0.1,-0.1140287769784173,-0.115,-0.1080575539568346,-0.087697841726619,-0.0657913669064748,-0.062158273381295,-0.0555755395683453,-0.03,-0.0187769784172661,-0.0126258992805756,0.0030215827338126,0.0242805755395681,0.0448201438848919,0.0457194244604315,0.0710791366906474,0.0841726618705036,0.0756115107913669,0.0835611510791366,0.0896402877697846,0.0464748201438852,-0.0213669064748197,-0.0647122302158268,-0.1280215827338128,-0.1482374100719424,-0.149388489208633,-0.1415107913669061,-0.1715467625899276,-0.1872302158273382,-0.16,-0.165071942446043,-0.175,-0.1719064748201438,-0.1715467625899281,-0.2,-0.1985971223021584,-0.1343165467625911,0.0249640287769761,0.3381294964028756,0.7990287769784152,1.2865107913669058,1.61,0
1.485,1.2551438848920864,0.7288848920863309,0.1617985611510791,-0.2578057553956834,-0.4393884892086331,-0.4570143884892086,-0.4199280575539568,-0.3956474820143885,-0.4339568345323741,-0.4866187050359712,-0.511546762589928,-0.5193525179856116,-0.4935971223021582,-0.4842446043165467,-0.4949640287769784,-0.510863309352518,-0.5284172661870504,-0.52,-0.5117625899280576,-0.4989208633093525,-0.4770503597122301,-0.49,-0.5037410071942446,-0.515,-0.515,-0.4953956834532374,-0.4690647482014388,-0.4607553956834532,-0.4695323741007194,-0.4666187050359712,-0.4758273381294964,-0.469136690647482,-0.4603597122302159,-0.435,-0.4356115107913669,-0.4320863309352518,-0.4247482014388489,-0.4264748201438849,-0.4230935251798561,-0.4017625899280575,-0.375431654676259,-0.3654676258992805,-0.37,-0.3611870503597122,-0.3699640287769783,-0.3712589928057553,-0.37,-0.371294964028777,-0.3851438848920863,-0.395,-0.3747482014388489,-0.3721942446043165,-0.3605395683453236,-0.3552158273381294,-0.3395323741007195,-0.3434892086330935,-0.3397122302158274,-0.3390647482014389,-0.335,-0.33,-0.3307913669064747,-0.3483453237410072,-0.3638489208633092,-0.375,-0.3610071942446043,-0.37,-0.3669424460431654,-0.3468345323741006,-0.3612230215827338,-0.37,-0.3881654676258993,-0.3830575539568345,-0.3742805755395683,-0.3610071942446043,-0.345,-0.345,-0.3524820143884892,-0.3696043165467625,-0.38,-0.385,-0.3540647482014388,-0.3405755395683454,-0.3284892086330934,-0.3345323741007195,-0.3660431654676259,-0.3603597122302159,-0.35,-0.3426258992805755,-0.33,-0.3250719424460432,-0.3324100719424459,-0.3449640287769784,-0.3437410071942446,-0.335,-0.3388129496402877,-0.34,-0.3241007194244604,-0.3402877697841726,-0.3578417266187051,-0.3726978417266187,-0.3520503597122302,-0.330251798561151,-0.3390287769784173,-0.32,-0.3052517985611511,-0.2857194244604315,-0.2784532374100718,-0.2462589928057554,-0.2366906474820143,-0.218129496402878,-0.1830215827338128,-0.165,-0.1817985611510791,-0.1894244604316547,-0.1762949640287769,-0.1831294964028776,-0.221438848920863,-0.26773381294964,-0.3117625899280577,-0.3414748201438848,-0.3529856115107914,-0.3607913669064747,-0.369568345323741,-0.3933812949640287,-0.4121223021582733,-0.4317985611510789,-0.4446762589928058,-0.4380935251798561,-0.4277697841726619,-0.4070143884892087,-0.415,-0.4578057553956833,-0.4679856115107915,-0.3993884892086324,-0.2226978417266185,0.0927697841726604,0.5394244604316508,1.0422661870503618,1.43,0
1.6,1.3792446043165467,0.8674460431654676,0.3115827338129495,-0.0807194244604316,-0.235251798561151,-0.2629496402877698,-0.2326618705035971,-0.2304676258992805,-0.2764388489208633,-0.3168345323741007,-0.3068705035971223,-0.3079496402877698,-0.3209712230215827,-0.3298920863309352,-0.3502517985611511,-0.3395323741007194,-0.3283812949640288,-0.3055755395683453,-0.3055035971223021,-0.3231654676258993,-0.3373381294964029,-0.3474820143884892,-0.3346402877697841,-0.3167985611510791,-0.311978417266187,-0.3141726618705036,-0.305,-0.3097841726618705,-0.317589928057554,-0.3147482014388489,-0.278453237410072,-0.2704676258992806,-0.2706115107913669,-0.2666906474820144,-0.2794604316546762,-0.2888489208633093,-0.2649280575539569,-0.2520143884892086,-0.24,-0.2331654676258993,-0.2315107913669065,-0.2446762589928057,-0.2456115107913669,-0.2224460431654677,-0.1971223021582733,-0.1996402877697841,-0.2035611510791366,-0.2232014388489209,-0.2342446043165468,-0.2289568345323741,-0.2150719424460432,-0.192230215827338,-0.189388489208633,-0.186546762589928,-0.18,-0.1708633093525179,-0.1545323741007194,-0.1303597122302159,-0.1266546762589929,-0.1360071942446043,-0.1716906474820143,-0.1842805755395682,-0.188956834532374,-0.1840647482014388,-0.1702877697841727,-0.16,-0.1703956834532374,-0.18,-0.1844604316546763,-0.1889208633093525,-0.1833812949640287,-0.1580935251798561,-0.1637769784172661,-0.1702877697841725,-0.18,-0.185,-0.1869064748201438,-0.17,-0.1415107913669061,-0.1386690647482014,-0.1575899280575539,-0.1680215827338131,-0.169568345323741,-0.165,-0.16,-0.14,-0.1361151079136691,-0.1499640287769784,-0.145,-0.15,-0.165,-0.1542805755395683,-0.1453597122302157,-0.1471223021582733,-0.16,-0.165,-0.1606474820143884,-0.17,-0.1573381294964031,-0.1429136690647482,-0.1470143884892087,-0.155,-0.1688489208633093,-0.1494604316546761,-0.1316187050359712,-0.1037769784172661,-0.076870503597122,-0.0803597122302157,-0.0678776978417265,-0.0448201438848923,-0.009568345323741,0.0124100719424461,0.0058273381294965,0.0010431654676258,0.0014028776978415,-0.024640287769784,-0.0362230215827338,-0.0656474820143887,-0.1031654676258992,-0.1370143884892087,-0.172697841726619,-0.2000359712230215,-0.2222661870503597,-0.2226258992805756,-0.2153237410071942,-0.23,-0.2320503597122302,-0.2318705035971223,-0.245,-0.2544244604316546,-0.245,-0.2628776978417271,-0.265,-0.2360431654676256,-0.0993525179856128,0.1830215827338125,0.6187050359712252,1.1321942446043138,1.535,0
1.43,1.3702158273381295,0.941115107913669,0.3618345323741006,-0.1233453237410071,-0.3466906474820144,-0.3651079136690647,-0.3202517985611511,-0.2803597122302158,-0.2946762589928057,-0.3442805755395683,-0.3823021582733812,-0.3948920863309352,-0.385,-0.395,-0.3916546762589928,-0.38,-0.3828057553956834,-0.3776618705035971,-0.3739208633093525,-0.3748201438848921,-0.3835611510791367,-0.3657913669064748,-0.3589568345323741,-0.364568345323741,-0.37,-0.36,-0.3520143884892086,-0.36,-0.3460431654676259,-0.3327697841726619,-0.3340287769784173,-0.3394244604316547,-0.336546762589928,-0.3471942446043165,-0.3281294964028777,-0.3012949640287769,-0.2884172661870504,-0.2971582733812949,-0.2923021582733813,-0.2892805755395683,-0.2951438848920863,-0.2736330935251798,-0.2424100719424459,-0.23,-0.2283453237410072,-0.23,-0.2324820143884892,-0.2404316546762589,-0.235,-0.2079496402877698,-0.2176258992805755,-0.2095323741007194,-0.223273381294964,-0.225,-0.2084892086330934,-0.1910071942446043,-0.1635251798561151,-0.1689568345323741,-0.1685971223021583,-0.19,-0.2146043165467627,-0.2202877697841727,-0.2,-0.2044244604316546,-0.2118345323741007,-0.2126258992805756,-0.2288848920863307,-0.2462230215827338,-0.2374820143884892,-0.2256474820143884,-0.2162230215827338,-0.2162949640287769,-0.21,-0.2205035971223023,-0.2288489208633092,-0.2243165467625898,-0.2069424460431655,-0.2035971223021582,-0.2089208633093525,-0.2042805755395683,-0.2110431654676259,-0.2114748201438848,-0.1984892086330934,-0.1892446043165468,-0.2029856115107914,-0.1982733812949639,-0.2004676258992806,-0.2134172661870502,-0.22,-0.1916187050359712,-0.1754316546762589,-0.2050359712230215,-0.1879136690647482,-0.1932733812949641,-0.2107913669064748,-0.2117266187050359,-0.1963669064748199,-0.1998561151079138,-0.1996402877697842,-0.1991007194244604,-0.19568345323741,-0.215,-0.2090287769784173,-0.1787410071942446,-0.1637769784172661,-0.1353597122302157,-0.1247122302158273,-0.107913669064748,-0.1166906474820142,-0.0889568345323738,-0.0384892086330938,0.0019784172661869,-0.01,-0.01,-0.0110791366906474,-0.0389568345323741,-0.0703956834532374,-0.08363309352518,-0.1160791366906477,-0.1724460431654679,-0.1823381294964028,-0.2028057553956836,-0.2254316546762588,-0.2322302158273382,-0.22,-0.2204676258992805,-0.235,-0.2311510791366906,-0.2277697841726619,-0.2489928057553957,-0.255,-0.255,-0.2574460431654675,-0.2231654676259,-0.063992805755397,0.2185251798561137,0.6359352517985599,1.1067266187050353,1.525,0
1.435,1.2507913669064747,0.771726618705036,0.1974100719424462,-0.2473021582733812,-0.4950359712230215,-0.5489208633093525,-0.4996043165467626,-0.4638129496402878,-0.46,-0.4886690647482014,-0.5360071942446043,-0.552841726618705,-0.5524460431654676,-0.555,-0.555,-0.5476258992805756,-0.5406474820143885,-0.545,-0.5493884892086331,-0.5509352517985612,-0.5637410071942446,-0.5639568345323741,-0.5447122302158274,-0.54,-0.55,-0.5495683453237411,-0.53,-0.5566546762589928,-0.56,-0.5435971223021583,-0.5485251798561152,-0.5402517985611511,-0.5279136690647482,-0.515,-0.519568345323741,-0.5021582733812949,-0.4977697841726619,-0.4943884892086331,-0.4970143884892086,-0.4831294964028776,-0.475,-0.47,-0.4627338129496404,-0.4580575539568345,-0.4646043165467625,-0.47,-0.4507553956834532,-0.4342446043165466,-0.45,-0.4426618705035972,-0.4508273381294964,-0.4752158273381294,-0.48,-0.4682374100719424,-0.445,-0.4383812949640288,-0.4284172661870504,-0.4201438848920863,-0.435,-0.4521942446043165,-0.445,-0.4479496402877697,-0.4651079136690648,-0.4544964028776978,-0.4638489208633092,-0.4852158273381294,-0.505,-0.5024100719424461,-0.4858633093525179,-0.494136690647482,-0.497410071942446,-0.5027338129496403,-0.5239568345323741,-0.522769784172662,-0.5055035971223021,-0.51,-0.5070503597122302,-0.505,-0.5157913669064746,-0.5456115107913669,-0.545,-0.5244964028776977,-0.515,-0.5100359712230217,-0.4985251798561151,-0.5004676258992808,-0.5043525179856115,-0.531115107913669,-0.5410071942446043,-0.5346043165467625,-0.5271223021582735,-0.521546762589928,-0.5055755395683454,-0.5284892086330937,-0.5509712230215827,-0.5422661870503601,-0.5374820143884893,-0.5292086330935253,-0.5290647482014389,-0.52,-0.5380575539568346,-0.5677697841726618,-0.5556834532374103,-0.5287050359712231,-0.4964748201438853,-0.4860431654676259,-0.4742446043165469,-0.4423741007194243,-0.4264028776978418,-0.415,-0.415,-0.4182374100719422,-0.4201079136690647,-0.43,-0.4278776978417267,-0.4444244604316546,-0.5069424460431651,-0.556294964028777,-0.5840647482014387,-0.6056115107913669,-0.6210791366906474,-0.6337050359712229,-0.635251798561151,-0.6526978417266185,-0.6691726618705036,-0.665,-0.6607194244604317,-0.6769784172661869,-0.6777338129496404,-0.6716187050359712,-0.7116906474820138,-0.7583453237410072,-0.7614028776978424,-0.6496043165467623,-0.4554316546762601,-0.1761870503597173,0.2499280575539556,0.6896043165467586,1.05,0
1.66,1.5767625899280575,1.1522661870503597,0.5662589928057555,0.0655395683453238,-0.2275899280575539,-0.33,-0.309136690647482,-0.2668705035971223,-0.2671582733812949,-0.2885971223021582,-0.3149280575539568,-0.3328776978417266,-0.34,-0.335,-0.35,-0.3494964028776978,-0.336294964028777,-0.3306834532374101,-0.3362230215827338,-0.345,-0.3374820143884892,-0.335,-0.335,-0.3384892086330936,-0.3213309352517985,-0.315431654676259,-0.305,-0.3033812949640287,-0.3052877697841726,-0.3185971223021582,-0.3188489208633094,-0.2905035971223021,-0.2870863309352517,-0.285,-0.283273381294964,-0.275,-0.2805395683453237,-0.2762230215827338,-0.2706474820143885,-0.2506115107913669,-0.2347482014388488,-0.2499640287769784,-0.245,-0.2369424460431654,-0.2307913669064747,-0.2284532374100719,-0.2080935251798561,-0.1957553956834532,-0.2126258992805755,-0.2123381294964028,-0.2033453237410071,-0.2241366906474819,-0.2159352517985611,-0.1920503597122302,-0.185,-0.1916187050359712,-0.1963309352517986,-0.1944244604316547,-0.185,-0.1684172661870503,-0.1543525179856115,-0.1541007194244603,-0.1574460431654676,-0.165,-0.1783812949640286,-0.1958273381294964,-0.2022661870503597,-0.195,-0.2048201438848919,-0.216546762589928,-0.2005395683453236,-0.215,-0.2229136690647482,-0.215,-0.2070143884892087,-0.1924460431654675,-0.19,-0.1943525179856115,-0.2106115107913669,-0.2237410071942446,-0.1964388489208635,-0.18,-0.1766187050359711,-0.1798561151079138,-0.17,-0.181978417266187,-0.189568345323741,-0.1811151079136691,-0.1776618705035971,-0.1734172661870505,-0.165,-0.1680935251798561,-0.1911510791366906,-0.1903956834532374,-0.1830575539568344,-0.1919784172661872,-0.1899640287769783,-0.1868345323741007,-0.1887410071942446,-0.1953237410071942,-0.2075539568345323,-0.202230215827338,-0.20431654676259,-0.1917266187050361,-0.19,-0.1810431654676259,-0.1894964028776978,-0.1641007194244605,-0.1435971223021583,-0.1302877697841728,-0.0851438848920869,-0.0361870503597121,-0.0256474820143884,-0.0363309352517986,-0.0542446043165466,-0.0517266187050357,-0.0609712230215828,-0.0574820143884892,-0.0846762589928057,-0.1269424460431653,-0.1927338129496399,-0.2325899280575538,-0.2637410071942442,-0.2685971223021585,-0.2566546762589928,-0.2651079136690648,-0.2771223021582733,-0.2940287769784172,-0.2935971223021584,-0.2996043165467621,-0.2926258992805756,-0.2808273381294964,-0.297841726618705,-0.288129496402878,-0.1741366906474834,0.0642086330935228,0.4644244604316488,0.990539568345316,1.485,0
1.68,1.466115107913669,0.9764028776978416,0.3751438848920863,-0.1050359712230215,-0.331798561151079,-0.3618345323741007,-0.3342805755395683,-0.3187769784172662,-0.3394964028776978,-0.3708273381294963,-0.404136690647482,-0.4013309352517986,-0.3932374100719424,-0.4053597122302158,-0.4179136690647482,-0.4248920863309352,-0.4253956834532374,-0.4005035971223022,-0.3816187050359713,-0.37,-0.3776978417266187,-0.404136690647482,-0.3972661870503597,-0.3923381294964029,-0.385,-0.375,-0.3742446043165467,-0.3714388489208633,-0.38,-0.3691726618705035,-0.371978417266187,-0.3451079136690647,-0.338884892086331,-0.3346043165467626,-0.3508992805755395,-0.3505035971223021,-0.35,-0.3316187050359713,-0.3238489208633095,-0.3011151079136691,-0.2925179856115107,-0.3,-0.3,-0.275,-0.2687410071942446,-0.2635971223021582,-0.2540647482014389,-0.2529856115107913,-0.2675179856115108,-0.275,-0.2784532374100719,-0.285,-0.2774100719424462,-0.2472661870503598,-0.23568345323741,-0.2485611510791366,-0.2350359712230215,-0.24,-0.23,-0.2233453237410071,-0.2326978417266187,-0.2340647482014388,-0.2582374100719424,-0.2652158273381295,-0.285251798561151,-0.285,-0.2719784172661871,-0.2553956834532374,-0.2632014388489208,-0.285,-0.2896043165467626,-0.2810071942446044,-0.2801798561151079,-0.2676258992805755,-0.2552158273381295,-0.2667625899280574,-0.2709352517985611,-0.2682733812949642,-0.2633453237410071,-0.2744604316546764,-0.2558992805755396,-0.245,-0.245,-0.25431654676259,-0.26,-0.26,-0.2520503597122303,-0.2284532374100719,-0.22,-0.2312230215827338,-0.2326618705035971,-0.235,-0.2395323741007193,-0.2531294964028777,-0.2382733812949641,-0.23,-0.2456834532374102,-0.2525539568345323,-0.2638848920863309,-0.26,-0.2583093525179856,-0.2423741007194246,-0.2255035971223022,-0.2053956834532377,-0.2,-0.1874100719424461,-0.18,-0.1645323741007196,-0.1053956834532374,-0.06226618705036,-0.0492805755395683,-0.0628776978417266,-0.0835251798561151,-0.09,-0.0863309352517986,-0.085,-0.0960431654676256,-0.1428417266187051,-0.1952877697841724,-0.2416546762589928,-0.2657553956834531,-0.291546762589928,-0.2775539568345325,-0.2760431654676259,-0.284640287769784,-0.31,-0.315,-0.32,-0.3280575539568346,-0.3121223021582734,-0.3024460431654677,-0.3437410071942443,-0.3444964028776976,-0.2657553956834541,-0.0748201438848914,0.2467625899280551,0.7121223021582739,1.199352517985608,1.58,0
